792.44574,309
792.56488,356
792.68396,387
792.80304,375
792.92218,327
793.041199,324
793.160339,331
793.279419,351
793.398499,320
793.517578,298
793.636658,321
793.755737,315
793.874817,351
793.993896,354
794.112976,338
794.232056,335
794.351074,339
794.470215,330
794.589233,323
794.708313,334
794.827393,323
794.946411,331
795.065552,333
795.18457,334
795.303589,340
795.422668,319
795.541687,335
795.660767,316
795.779846,332
795.898865,341
796.017883,324
796.136963,331
796.255981,317
796.375061,331
796.49408,305
796.613037,343
796.732117,333
796.851135,332
796.970154,325
797.089233,331
797.208191,327
797.327271,327
797.446228,335
797.565186,314
797.684265,336
797.803223,322
797.922241,319
798.04126,321
798.160278,312
798.279297,335
798.398315,325
798.517273,333
798.636292,338
798.75531,329
798.874268,330
798.993286,334
799.112244,322
799.231323,341
799.350281,323
799.469238,319
799.588257,318
799.707153,328
799.826111,325
799.945129,329
800.064087,328
800.183044,325
800.302063,315
800.421021,318
800.539978,328
800.658936,327
800.777893,316
800.896912,330
801.015747,324
801.134705,332
801.253723,327
801.37262,327
801.491638,329
801.610535,329
801.729492,326
801.84845,322
801.967407,335
802.086243,341
802.205261,333
802.324158,330
802.443115,338
802.562073,327
802.680969,333
802.799927,312
802.918762,316
803.037659,324
803.156677,323
803.275574,330
803.39447,340
803.513428,320
803.632263,332
803.751221,320
803.870117,320
803.989014,327
804.107971,332
804.226746,330
804.345642,329
804.4646,323
804.583496,327
804.702393,329
804.821228,317
804.940125,333
805.059021,326
805.177917,323
805.296814,326
805.415649,318
805.534546,334
805.653442,344
805.772278,332
805.891113,334
806.01001,322
806.128906,339
806.247742,324
806.366577,339
806.485413,330
806.604309,330
806.723145,337
806.84198,333
806.960876,333
807.079712,336
807.198486,333
807.317383,326
807.436218,343
807.554993,335
807.673889,335
807.792725,328
807.91156,336
808.030396,336
808.14917,326
808.268005,319
808.386841,314
808.505676,342
808.624451,332
808.743286,324
808.862122,340
808.980896,334
809.099731,325
809.218506,336
809.337341,312
809.456116,322
809.57489,322
809.693726,344
809.8125,342
809.931274,326
810.050049,333
810.168884,328
810.287659,329
810.406372,328
810.525269,332
810.643982,324
810.762756,337
810.881531,326
811.000305,343
811.11908,326
811.237854,333
811.356567,335
811.475403,340
811.594116,338
811.71283,342
811.831604,335
811.950378,336
812.069153,338
812.187927,334
812.30658,333
812.425415,344
812.544128,331
812.662781,321
812.781616,334
812.900269,339
813.019043,348
813.137756,332
813.256531,351
813.375244,343
813.493896,336
813.612671,341
813.731384,324
813.850037,341
813.96875,342
814.087524,335
814.206238,326
814.324951,346
814.443604,335
814.562256,345
814.68103,331
814.799683,328
814.918335,333
815.037109,339
815.155762,329
815.274475,333
815.393188,329
815.511841,327
815.630554,326
815.749146,331
815.867859,326
815.986572,332
816.105164,330
816.223877,329
816.342529,329
816.461182,341
816.579895,323
816.698486,324
816.817139,333
816.935791,324
817.054504,325
817.173096,334
817.291748,325
817.4104,328
817.529053,328
817.647644,321
817.766235,317
817.884949,333
818.00354,335
818.122192,324
818.240845,334
818.359436,329
818.478088,322
818.59668,324
818.715271,326
818.833923,312
818.952515,328
819.071106,316
819.189758,324
819.30835,325
819.426941,321
819.545532,313
819.664124,318
819.782715,313
819.901306,325
820.019897,314
820.138489,320
820.25708,311
820.375671,308
820.494202,315
820.612732,331
820.731384,321
820.849915,323
820.968506,311
821.087097,322
821.205627,321
821.324158,322
821.442749,315
821.561279,316
821.679871,312
821.798401,322
821.916931,330
822.035461,315
822.154053,317
822.272583,312
822.391174,316
822.509583,311
822.628174,319
822.746704,314
822.865234,326
822.983765,324
823.102295,308
823.220825,305
823.339294,318
823.457825,313
823.576355,325
823.694824,318
823.813354,317
823.931885,320
824.050354,324
824.168884,323
824.287354,312
824.405823,318
824.524353,323
824.642822,314
824.761353,321
824.879822,312
824.998291,317
825.116699,325
825.235291,339
825.353699,317
825.472168,310
825.590637,323
825.709106,325
825.827576,324
825.946045,324
826.064453,309
826.182983,307
826.301392,316
826.4198,321
826.53833,320
826.656738,299
826.775208,305
826.893677,308
827.012024,313
827.130493,329
827.248962,320
827.36731,308
827.485779,320
827.604248,325
827.722595,312
827.841064,301
827.959412,332
828.077942,300
828.196289,305
828.314636,317
828.433105,313
828.551514,319
828.669861,298
828.78833,320
828.906677,319
829.025085,318
829.143433,326
829.261841,319
829.38031,327
829.498657,300
829.617004,314
829.735413,309
829.85376,317
829.972107,314
830.090515,327
830.208862,313
830.327209,311
830.445557,302
830.563904,316
830.682312,301
830.800659,314
830.919006,313
831.037354,317
831.155701,319
831.274048,308
831.392395,305
831.51062,334
831.629028,310
831.747314,320
831.865662,315
831.984009,319
832.102356,307
832.220642,297
832.338928,320
832.457275,316
832.575623,311
832.693909,329
832.812134,307
832.930481,311
833.048828,328
833.167114,322
833.2854,320
833.403687,314
833.521973,311
833.640259,310
833.758545,318
833.876831,308
833.995056,315
834.113281,313
834.231628,312
834.349915,310
834.468201,315
834.586426,309
834.704651,314
834.822998,325
834.941162,305
835.059448,321
835.177673,308
835.295959,315
835.414246,314
835.53241,314
835.650635,298
835.768921,307
835.887146,325
836.005371,314
836.123596,309
836.241821,319
836.360046,304
836.478271,302
836.596497,315
836.714722,318
836.832886,326
836.95105,320
837.069336,320
837.1875,324
837.305725,306
837.423889,305
837.542053,318
837.660339,321
837.778503,320
837.896667,315
838.014832,329
838.132996,315
838.25116,305
838.369385,325
838.487488,301
838.605713,325
838.723877,318
838.84198,337
838.960205,306
839.078308,326
839.196472,310
839.314636,333
839.4328,321
839.550964,323
839.669067,311
839.787231,312
839.905396,313
840.023499,320
840.141602,319
840.259766,328
840.377869,320
840.495972,316
840.614136,303
840.732239,305
840.850342,313
840.968445,318
841.086548,320
841.204651,331
841.322754,317
841.440918,305
841.55896,307
841.677002,309
841.795166,313
841.913208,306
842.031311,326
842.149353,308
842.267456,316
842.385498,319
842.503601,312
842.621643,320
842.739746,316
842.857788,319
842.97583,305
843.093933,315
843.211975,315
843.330017,311
843.44812,327
843.566101,314
843.684204,320
843.802246,307
843.920227,311
844.038269,313
844.156311,302
844.274292,330
844.392395,320
844.510376,324
844.628357,311
844.74646,304
844.864441,309
844.982422,325
845.100403,315
845.218384,326
845.336426,309
845.454468,321
845.572449,313
845.69043,309
845.808411,306
845.926453,311
846.044373,323
846.162354,312
846.280396,323
846.398315,322
846.516296,317
846.634216,328
846.752197,315
846.870178,310
846.988098,312
847.106079,328
847.22406,310
847.34198,302
847.4599,314
847.577881,323
847.695801,312
847.813782,321
847.931641,306
848.049561,311
848.167603,315
848.285461,323
848.403381,314
848.521362,301
848.639221,315
848.75708,317
848.875,319
848.99292,328
849.110901,313
849.22876,326
849.34668,303
849.464539,330
849.582458,317
849.700317,309
849.818176,309
849.936096,320
850.053955,318
850.171875,310
850.289673,305
850.407593,300
850.525452,312
850.643311,315
850.761169,306
850.878967,324
850.996887,314
851.114746,312
851.232544,323
851.350403,310
851.468262,315
851.58606,315
851.703979,328
851.821777,327
851.939636,324
852.057434,314
852.175232,312
852.293091,309
852.410889,316
852.528687,316
852.646545,313
852.764343,313
852.88208,312
852.999939,328
853.117676,313
853.235535,300
853.353271,311
853.471069,302
853.588928,319
853.706604,323
853.824402,325
853.9422,312
854.059998,305
854.177734,317
854.295532,321
854.413269,310
854.531006,313
854.648804,319
854.766541,326
854.884277,325
855.002014,317
855.119751,302
855.237549,297
855.355225,319
855.473022,324
855.590698,325
855.708435,306
855.826172,314
855.943848,316
856.061646,316
856.179321,313
856.296997,316
856.414795,309
856.53241,321
856.650085,319
856.767822,330
856.885559,321
857.003174,293
857.120911,338
857.238586,319
857.356201,321
857.473938,315
857.591614,321
857.709351,315
857.826965,312
857.944641,307
858.062317,318
858.179993,314
858.297668,316
858.415283,312
858.532959,315
858.650574,308
858.768188,308
858.885803,299
859.003479,325
859.121094,316
859.23877,303
859.356384,312
859.473999,317
859.591675,321
859.709229,316
859.826843,329
859.944458,304
860.062012,324
860.179626,307
860.297302,317
860.414856,310
860.532471,309
860.650024,320
860.767639,325
860.885193,310
861.002808,314
861.120361,316
861.237976,331
861.35553,306
861.473022,323
861.590698,329
861.708191,318
861.825745,322
861.943298,310
862.060852,310
862.178406,326
862.295959,310
862.413513,316
862.531006,316
862.64856,306
862.766113,320
862.883667,315
863.00116,316
863.118713,319
863.236206,313
863.353699,329
863.471252,313
863.588745,314
863.706177,321
863.82373,319
863.941162,303
864.058716,315
864.176208,317
864.29364,308
864.411194,315
864.528687,313
864.646118,316
864.763611,329
864.881042,330
864.998535,320
865.116028,318
865.233459,320
865.350891,321
865.468384,318
865.585754,307
865.703308,333
865.820679,310
865.938171,326
866.055542,302
866.173035,320
866.290466,314
866.407837,306
866.52533,319
866.6427,324
866.760071,308
866.877563,326
866.994934,320
867.112305,323
867.229736,314
867.347107,314
867.464539,306
867.58197,329
867.699341,330
867.81665,302
867.934082,325
868.051453,320
868.168823,324
868.286194,302
868.403564,305
868.520935,310
868.638306,319
868.755676,315
868.872986,308
868.990295,326
869.107727,314
869.225037,303
869.342346,318
869.459717,325
869.577026,315
869.694336,330
869.811707,318
869.929016,309
870.046326,304
870.163635,319
870.280945,317
870.398254,311
870.515564,311
870.632812,315
870.750183,328
870.867432,323
870.984741,316
871.102051,312
871.219299,320
871.336609,324
871.453918,308
871.571106,321
871.688416,310
871.805664,320
871.922852,323
872.040222,316
872.157471,308
872.274719,312
872.391968,319
872.509155,311
872.626465,327
872.743652,341
872.860962,330
872.978149,302
873.095337,324
873.212646,321
873.329834,315
873.44696,316
873.564209,318
873.681396,312
873.798645,310
873.915894,314
874.03302,310
874.150208,318
874.267456,311
874.384583,312
874.501831,312
874.618958,316
874.736145,313
874.853333,313
874.970459,299
875.087646,333
875.204834,313
875.32196,315
875.439148,313
875.556274,325
875.673401,308
875.790527,319
875.907715,327
876.024841,316
876.141968,311
876.259094,330
876.376282,310
876.493347,320
876.610474,316
876.7276,309
876.844727,313
876.961853,318
877.078918,317
877.195984,330
877.313171,308
877.430237,326
877.547302,318
877.664368,316
877.781433,328
877.898499,307
878.015625,308
878.13269,317
878.249695,319
878.366821,327
878.483887,323
878.600952,307
878.717957,310
878.834961,317
878.952087,313
879.069092,306
879.186157,315
879.303162,322
879.420227,312
879.537231,317
879.654236,302
879.77124,317
879.888306,310
880.005249,316
880.122314,315
880.239319,311
880.356323,319
880.473328,328
880.590271,314
880.707275,323
880.824341,304
880.941284,321
881.058228,309
881.175232,317
881.292236,325
881.40918,324
881.526123,320
881.643066,308
881.760071,314
881.877014,324
881.993958,307
882.11084,309
882.227783,302
882.344727,323
882.46167,308
882.578613,313
882.695618,320
882.812439,326
882.929382,325
883.046326,310
883.163208,316
883.280151,313
883.397034,313
883.513916,314
883.630798,302
883.747742,313
883.864563,310
883.981506,324
884.098389,298
884.21521,326
884.332153,307
884.448975,315
884.565796,310
884.682678,322
884.7995,307
884.916443,316
885.033264,319
885.150085,321
885.266968,325
885.383789,320
885.500671,303
885.617493,315
885.734314,325
885.851196,323
885.967896,330
886.084717,320
886.201599,314
886.318359,319
886.435181,328
886.552002,318
886.668762,332
886.785645,316
886.902344,322
887.019165,313
887.135925,306
887.252747,315
887.369446,321
887.486267,314
887.603027,304
887.719788,312
887.836548,317
887.953247,320
888.070068,314
888.186829,326
888.303528,302
888.420288,324
888.536987,313
888.653687,309
888.770447,307
888.887146,308
889.003967,310
889.120667,325
889.237305,307
889.354065,317
889.470703,331
889.587463,303
889.704163,320
889.820862,315
889.937561,308
890.054199,331
890.170837,313
890.287598,329
890.404236,302
890.520874,331
890.637634,317
890.754211,323
890.87085,321
890.987549,317
891.104187,318
891.220886,325
891.337463,309
891.454102,315
891.57074,312
891.687378,326
891.804077,311
891.920654,314
892.037231,315
892.15387,312
892.270447,332
892.387085,314
892.503723,320
892.6203,311
892.736877,318
892.853516,321
892.970032,318
893.08667,313
893.203186,314
893.319763,322
893.43634,340
893.552917,331
893.669556,312
893.786011,319
893.902588,319
894.019165,328
894.135681,318
894.252197,320
894.368835,310
894.485291,313
894.601868,313
894.718384,328
894.8349,324
894.951355,315
895.067932,308
895.184448,305
895.300964,321
895.417419,318
895.533936,310
895.650452,303
895.766907,306
895.883423,314
895.999878,318
896.116333,337
896.232849,312
896.349304,311
896.465759,302
896.582214,325
896.698669,312
896.815125,314
896.931641,320
897.048035,314
897.164551,319
897.280884,311
897.397339,311
897.513794,335
897.630249,316
897.746582,316
897.863098,325
897.979431,328
898.095886,306
898.212341,326
898.328674,310
898.445129,331
898.561462,316
898.677795,323
898.794312,313
898.910645,313
899.026978,314
899.143433,330
899.259766,321
899.37616,316
899.492493,306
899.608765,336
899.725159,300
899.841553,326
899.957947,315
900.07428,310
900.190552,328
900.306946,308
900.423157,309
900.53949,323
900.655884,301
900.772156,332
900.888489,316
901.004822,316
901.121033,312
901.237366,318
901.353699,320
901.46991,316
901.586304,323
901.702515,312
901.818787,319
901.93512,317
902.051331,306
902.167603,317
902.283875,307
902.400085,314
902.516418,310
902.632629,309
902.74884,314
902.865112,313
902.981384,313
903.097595,320
903.213867,308
903.330017,333
903.446289,309
903.5625,314
903.67865,308
903.794922,314
903.911072,301
904.027344,330
904.143494,311
904.259705,335
904.375916,318
904.492065,317
904.608215,311
904.724426,321
904.840576,326
904.956726,320
905.072876,314
905.189087,323
905.305176,312
905.421387,330
905.537537,311
905.653687,319
905.769775,314
905.885925,315
906.002014,318
906.118164,306
906.234314,315
906.350403,319
906.466492,311
906.582642,324
906.69873,311
906.814758,323
906.930908,332
907.046936,313
907.163086,319
907.279175,314
907.395264,328
907.511353,325
907.62738,324
907.743408,327
907.859497,316
907.975525,327
908.091553,330
908.207703,327
908.32373,329
908.439758,319
908.555786,307
908.671814,306
908.787842,294
908.90387,333
909.019775,327
909.135864,312
909.251892,315
909.367859,317
909.483826,309
909.599854,310
909.715881,314
909.831848,314
909.947815,324
910.063782,328
910.179749,315
910.295776,310
910.411743,323
910.527649,317
910.643616,309
910.759583,312
910.875488,322
910.991455,321
911.107361,317
911.223267,315
911.339294,314
911.4552,309
911.571106,301
911.687073,313
911.802979,304
911.918823,322
912.034729,312
912.150635,321
912.266602,307
912.382446,314
912.498352,324
912.614197,324
912.730103,315
912.846008,323
792.44574,322
792.56488,364
792.68396,412
792.80304,373
792.92218,337
793.041199,314
793.160339,334
793.279419,344
793.398499,330
793.517578,320
793.636658,323
793.755737,337
793.874817,347
793.993896,348
794.112976,322
794.232056,332
794.351074,328
794.470215,333
794.589233,323
794.708313,331
794.827393,318
794.946411,342
795.065552,336
795.18457,329
795.303589,341
795.422668,324
795.541687,339
795.660767,329
795.779846,326
795.898865,322
796.017883,340
796.136963,321
796.255981,343
796.375061,334
796.49408,337
796.613037,322
796.732117,349
796.851135,330
796.970154,325
797.089233,334
797.208191,331
797.327271,334
797.446228,337
797.565186,343
797.684265,329
797.803223,339
797.922241,329
798.04126,312
798.160278,339
798.279297,337
798.398315,321
798.517273,340
798.636292,343
798.75531,333
798.874268,339
798.993286,328
799.112244,327
799.231323,345
799.350281,329
799.469238,334
799.588257,327
799.707153,321
799.826111,341
799.945129,336
800.064087,333
800.183044,328
800.302063,338
800.421021,324
800.539978,325
800.658936,319
800.777893,335
800.896912,316
801.015747,327
801.134705,329
801.253723,337
801.37262,331
801.491638,320
801.610535,329
801.729492,318
801.84845,339
801.967407,325
802.086243,334
802.205261,326
802.324158,320
802.443115,339
802.562073,321
802.680969,337
802.799927,326
802.918762,322
803.037659,330
803.156677,319
803.275574,336
803.39447,339
803.513428,322
803.632263,333
803.751221,335
803.870117,349
803.989014,316
804.107971,333
804.226746,314
804.345642,324
804.4646,325
804.583496,337
804.702393,337
804.821228,317
804.940125,320
805.059021,320
805.177917,310
805.296814,333
805.415649,338
805.534546,317
805.653442,338
805.772278,323
805.891113,331
806.01001,320
806.128906,327
806.247742,334
806.366577,336
806.485413,314
806.604309,321
806.723145,339
806.84198,332
806.960876,313
807.079712,330
807.198486,336
807.317383,336
807.436218,325
807.554993,338
807.673889,330
807.792725,334
807.91156,331
808.030396,324
808.14917,342
808.268005,325
808.386841,340
808.505676,316
808.624451,334
808.743286,320
808.862122,341
808.980896,336
809.099731,342
809.218506,328
809.337341,328
809.456116,334
809.57489,332
809.693726,336
809.8125,326
809.931274,336
810.050049,354
810.168884,343
810.287659,328
810.406372,334
810.525269,328
810.643982,322
810.762756,336
810.881531,338
811.000305,335
811.11908,319
811.237854,338
811.356567,337
811.475403,327
811.594116,332
811.71283,329
811.831604,334
811.950378,349
812.069153,314
812.187927,349
812.30658,326
812.425415,338
812.544128,334
812.662781,336
812.781616,333
812.900269,348
813.019043,338
813.137756,321
813.256531,344
813.375244,330
813.493896,306
813.612671,328
813.731384,324
813.850037,327
813.96875,328
814.087524,332
814.206238,330
814.324951,336
814.443604,331
814.562256,329
814.68103,328
814.799683,329
814.918335,332
815.037109,328
815.155762,326
815.274475,334
815.393188,323
815.511841,322
815.630554,335
815.749146,345
815.867859,333
815.986572,333
816.105164,338
816.223877,335
816.342529,324
816.461182,333
816.579895,332
816.698486,337
816.817139,310
816.935791,346
817.054504,332
817.173096,326
817.291748,332
817.4104,311
817.529053,333
817.647644,338
817.766235,327
817.884949,329
818.00354,318
818.122192,337
818.240845,327
818.359436,313
818.478088,334
818.59668,328
818.715271,315
818.833923,312
818.952515,306
819.071106,322
819.189758,311
819.30835,318
819.426941,330
819.545532,322
819.664124,328
819.782715,312
819.901306,326
820.019897,311
820.138489,325
820.25708,327
820.375671,325
820.494202,320
820.612732,325
820.731384,324
820.849915,314
820.968506,330
821.087097,309
821.205627,330
821.324158,314
821.442749,316
821.561279,315
821.679871,314
821.798401,329
821.916931,328
822.035461,332
822.154053,319
822.272583,325
822.391174,327
822.509583,316
822.628174,326
822.746704,323
822.865234,320
822.983765,318
823.102295,321
823.220825,327
823.339294,310
823.457825,321
823.576355,322
823.694824,324
823.813354,327
823.931885,320
824.050354,330
824.168884,315
824.287354,326
824.405823,324
824.524353,315
824.642822,315
824.761353,318
824.879822,311
824.998291,328
825.116699,321
825.235291,320
825.353699,322
825.472168,322
825.590637,319
825.709106,322
825.827576,309
825.946045,317
826.064453,308
826.182983,326
826.301392,314
826.4198,317
826.53833,308
826.656738,327
826.775208,316
826.893677,321
827.012024,310
827.130493,309
827.248962,325
827.36731,320
827.485779,304
827.604248,317
827.722595,327
827.841064,312
827.959412,317
828.077942,322
828.196289,323
828.314636,308
828.433105,310
828.551514,308
828.669861,308
828.78833,320
828.906677,324
829.025085,315
829.143433,332
829.261841,323
829.38031,308
829.498657,326
829.617004,326
829.735413,314
829.85376,318
829.972107,325
830.090515,306
830.208862,316
830.327209,312
830.445557,324
830.563904,324
830.682312,323
830.800659,312
830.919006,326
831.037354,325
831.155701,326
831.274048,308
831.392395,309
831.51062,308
831.629028,320
831.747314,313
831.865662,320
831.984009,324
832.102356,324
832.220642,329
832.338928,324
832.457275,322
832.575623,308
832.693909,311
832.812134,321
832.930481,304
833.048828,315
833.167114,309
833.2854,308
833.403687,320
833.521973,325
833.640259,310
833.758545,316
833.876831,324
833.995056,302
834.113281,313
834.231628,314
834.349915,303
834.468201,327
834.586426,317
834.704651,307
834.822998,313
834.941162,317
835.059448,299
835.177673,326
835.295959,318
835.414246,313
835.53241,297
835.650635,315
835.768921,322
835.887146,308
836.005371,325
836.123596,321
836.241821,310
836.360046,324
836.478271,315
836.596497,324
836.714722,317
836.832886,317
836.95105,326
837.069336,325
837.1875,325
837.305725,325
837.423889,318
837.542053,324
837.660339,313
837.778503,324
837.896667,309
838.014832,305
838.132996,305
838.25116,305
838.369385,324
838.487488,330
838.605713,319
838.723877,320
838.84198,316
838.960205,334
839.078308,317
839.196472,320
839.314636,312
839.4328,336
839.550964,308
839.669067,317
839.787231,308
839.905396,330
840.023499,313
840.141602,329
840.259766,316
840.377869,340
840.495972,308
840.614136,316
840.732239,322
840.850342,316
840.968445,306
841.086548,324
841.204651,318
841.322754,313
841.440918,319
841.55896,310
841.677002,315
841.795166,316
841.913208,322
842.031311,319
842.149353,330
842.267456,311
842.385498,312
842.503601,320
842.621643,316
842.739746,338
842.857788,318
842.97583,329
843.093933,303
843.211975,326
843.330017,320
843.44812,312
843.566101,317
843.684204,329
843.802246,312
843.920227,306
844.038269,326
844.156311,327
844.274292,327
844.392395,313
844.510376,311
844.628357,327
844.74646,329
844.864441,320
844.982422,319
845.100403,337
845.218384,308
845.336426,322
845.454468,299
845.572449,315
845.69043,316
845.808411,311
845.926453,316
846.044373,315
846.162354,317
846.280396,328
846.398315,300
846.516296,323
846.634216,315
846.752197,307
846.870178,324
846.988098,319
847.106079,304
847.22406,322
847.34198,305
847.4599,325
847.577881,324
847.695801,312
847.813782,320
847.931641,328
848.049561,315
848.167603,305
848.285461,320
848.403381,314
848.521362,313
848.639221,309
848.75708,314
848.875,323
848.99292,307
849.110901,311
849.22876,311
849.34668,329
849.464539,309
849.582458,320
849.700317,321
849.818176,318
849.936096,317
850.053955,307
850.171875,331
850.289673,310
850.407593,311
850.525452,320
850.643311,318
850.761169,314
850.878967,318
850.996887,318
851.114746,310
851.232544,320
851.350403,310
851.468262,327
851.58606,310
851.703979,320
851.821777,311
851.939636,320
852.057434,325
852.175232,315
852.293091,316
852.410889,330
852.528687,319
852.646545,325
852.764343,315
852.88208,318
852.999939,317
853.117676,322
853.235535,312
853.353271,325
853.471069,315
853.588928,318
853.706604,320
853.824402,313
853.9422,312
854.059998,318
854.177734,315
854.295532,303
854.413269,311
854.531006,314
854.648804,306
854.766541,315
854.884277,309
855.002014,322
855.119751,318
855.237549,316
855.355225,318
855.473022,326
855.590698,308
855.708435,317
855.826172,307
855.943848,332
856.061646,321
856.179321,311
856.296997,326
856.414795,314
856.53241,322
856.650085,312
856.767822,303
856.885559,330
857.003174,314
857.120911,322
857.238586,313
857.356201,304
857.473938,323
857.591614,320
857.709351,318
857.826965,313
857.944641,310
858.062317,315
858.179993,312
858.297668,328
858.415283,316
858.532959,315
858.650574,331
858.768188,314
858.885803,303
859.003479,315
859.121094,317
859.23877,327
859.356384,308
859.473999,322
859.591675,313
859.709229,325
859.826843,318
859.944458,320
860.062012,316
860.179626,312
860.297302,305
860.414856,314
860.532471,326
860.650024,325
860.767639,321
860.885193,316
861.002808,312
861.120361,321
861.237976,310
861.35553,320
861.473022,313
861.590698,320
861.708191,320
861.825745,318
861.943298,311
862.060852,315
862.178406,318
862.295959,320
862.413513,316
862.531006,318
862.64856,310
862.766113,316
862.883667,304
863.00116,318
863.118713,312
863.236206,325
863.353699,304
863.471252,327
863.588745,312
863.706177,316
863.82373,316
863.941162,327
864.058716,310
864.176208,337
864.29364,322
864.411194,314
864.528687,318
864.646118,313
864.763611,321
864.881042,332
864.998535,311
865.116028,322
865.233459,316
865.350891,325
865.468384,302
865.585754,323
865.703308,312
865.820679,307
865.938171,328
866.055542,312
866.173035,309
866.290466,334
866.407837,312
866.52533,320
866.6427,306
866.760071,326
866.877563,332
866.994934,321
867.112305,314
867.229736,330
867.347107,324
867.464539,322
867.58197,321
867.699341,328
867.81665,316
867.934082,308
868.051453,330
868.168823,320
868.286194,326
868.403564,312
868.520935,309
868.638306,316
868.755676,306
868.872986,314
868.990295,304
869.107727,318
869.225037,306
869.342346,313
869.459717,311
869.577026,323
869.694336,328
869.811707,316
869.929016,307
870.046326,319
870.163635,314
870.280945,309
870.398254,329
870.515564,322
870.632812,331
870.750183,328
870.867432,305
870.984741,329
871.102051,321
871.219299,321
871.336609,306
871.453918,319
871.571106,325
871.688416,321
871.805664,328
871.922852,317
872.040222,306
872.157471,313
872.274719,316
872.391968,333
872.509155,313
872.626465,334
872.743652,320
872.860962,320
872.978149,318
873.095337,305
873.212646,305
873.329834,305
873.44696,303
873.564209,332
873.681396,320
873.798645,323
873.915894,324
874.03302,317
874.150208,321
874.267456,309
874.384583,319
874.501831,329
874.618958,306
874.736145,314
874.853333,309
874.970459,328
875.087646,321
875.204834,323
875.32196,314
875.439148,320
875.556274,323
875.673401,307
875.790527,323
875.907715,323
876.024841,322
876.141968,317
876.259094,315
876.376282,323
876.493347,328
876.610474,326
876.7276,316
876.844727,321
876.961853,314
877.078918,315
877.195984,326
877.313171,321
877.430237,319
877.547302,316
877.664368,320
877.781433,322
877.898499,310
878.015625,331
878.13269,309
878.249695,318
878.366821,320
878.483887,321
878.600952,323
878.717957,331
878.834961,309
878.952087,314
879.069092,315
879.186157,318
879.303162,318
879.420227,319
879.537231,307
879.654236,318
879.77124,310
879.888306,324
880.005249,318
880.122314,327
880.239319,314
880.356323,327
880.473328,316
880.590271,313
880.707275,311
880.824341,321
880.941284,316
881.058228,307
881.175232,323
881.292236,321
881.40918,317
881.526123,319
881.643066,317
881.760071,311
881.877014,318
881.993958,322
882.11084,321
882.227783,311
882.344727,320
882.46167,329
882.578613,313
882.695618,319
882.812439,324
882.929382,328
883.046326,330
883.163208,315
883.280151,319
883.397034,320
883.513916,305
883.630798,313
883.747742,315
883.864563,306
883.981506,307
884.098389,316
884.21521,324
884.332153,317
884.448975,317
884.565796,317
884.682678,323
884.7995,327
884.916443,320
885.033264,321
885.150085,306
885.266968,331
885.383789,304
885.500671,308
885.617493,318
885.734314,323
885.851196,315
885.967896,314
886.084717,310
886.201599,327
886.318359,317
886.435181,318
886.552002,321
886.668762,329
886.785645,313
886.902344,321
887.019165,305
887.135925,313
887.252747,319
887.369446,322
887.486267,314
887.603027,330
887.719788,313
887.836548,319
887.953247,313
888.070068,311
888.186829,309
888.303528,309
888.420288,316
888.536987,324
888.653687,306
888.770447,322
888.887146,317
889.003967,322
889.120667,331
889.237305,301
889.354065,307
889.470703,322
889.587463,313
889.704163,309
889.820862,312
889.937561,324
890.054199,312
890.170837,325
890.287598,304
890.404236,318
890.520874,328
890.637634,312
890.754211,304
890.87085,314
890.987549,313
891.104187,326
891.220886,302
891.337463,322
891.454102,314
891.57074,328
891.687378,309
891.804077,317
891.920654,312
892.037231,317
892.15387,309
892.270447,319
892.387085,309
892.503723,326
892.6203,320
892.736877,323
892.853516,311
892.970032,321
893.08667,307
893.203186,314
893.319763,319
893.43634,322
893.552917,327
893.669556,315
893.786011,319
893.902588,325
894.019165,323
894.135681,331
894.252197,306
894.368835,324
894.485291,310
894.601868,323
894.718384,303
894.8349,331
894.951355,315
895.067932,320
895.184448,322
895.300964,327
895.417419,312
895.533936,327
895.650452,314
895.766907,318
895.883423,318
895.999878,335
896.116333,309
896.232849,325
896.349304,320
896.465759,329
896.582214,310
896.698669,322
896.815125,303
896.931641,322
897.048035,312
897.164551,319
897.280884,309
897.397339,316
897.513794,329
897.630249,326
897.746582,315
897.863098,319
897.979431,305
898.095886,325
898.212341,319
898.328674,333
898.445129,311
898.561462,323
898.677795,321
898.794312,303
898.910645,306
899.026978,317
899.143433,310
899.259766,318
899.37616,326
899.492493,311
899.608765,310
899.725159,325
899.841553,321
899.957947,324
900.07428,307
900.190552,312
900.306946,302
900.423157,322
900.53949,319
900.655884,325
900.772156,317
900.888489,330
901.004822,310
901.121033,316
901.237366,318
901.353699,322
901.46991,317
901.586304,330
901.702515,321
901.818787,333
901.93512,317
902.051331,324
902.167603,316
902.283875,333
902.400085,325
902.516418,321
902.632629,318
902.74884,323
902.865112,314
902.981384,325
903.097595,324
903.213867,319
903.330017,312
903.446289,317
903.5625,320
903.67865,311
903.794922,314
903.911072,318
904.027344,307
904.143494,300
904.259705,322
904.375916,313
904.492065,320
904.608215,313
904.724426,307
904.840576,323
904.956726,317
905.072876,328
905.189087,324
905.305176,317
905.421387,321
905.537537,308
905.653687,322
905.769775,320
905.885925,324
906.002014,324
906.118164,307
906.234314,327
906.350403,321
906.466492,319
906.582642,303
906.69873,319
906.814758,316
906.930908,315
907.046936,312
907.163086,324
907.279175,320
907.395264,323
907.511353,317
907.62738,337
907.743408,321
907.859497,318
907.975525,316
908.091553,311
908.207703,296
908.32373,321
908.439758,319
908.555786,318
908.671814,316
908.787842,332
908.90387,316
909.019775,309
909.135864,320
909.251892,315
909.367859,308
909.483826,316
909.599854,306
909.715881,331
909.831848,307
909.947815,309
910.063782,303
910.179749,317
910.295776,328
910.411743,331
910.527649,312
910.643616,319
910.759583,319
910.875488,342
910.991455,311
911.107361,322
911.223267,307
911.339294,326
911.4552,316
911.571106,306
911.687073,314
911.802979,330
911.918823,317
912.034729,312
912.150635,299
912.266602,322
912.382446,315
912.498352,310
912.614197,305
912.730103,317
912.846008,307
792.44574,314
792.56488,341
792.68396,406
792.80304,390
792.92218,326
793.041199,312
793.160339,324
793.279419,337
793.398499,328
793.517578,330
793.636658,316
793.755737,340
793.874817,348
793.993896,336
794.112976,324
794.232056,328
794.351074,334
794.470215,329
794.589233,320
794.708313,338
794.827393,330
794.946411,333
795.065552,339
795.18457,342
795.303589,337
795.422668,321
795.541687,321
795.660767,320
795.779846,328
795.898865,319
796.017883,349
796.136963,343
796.255981,338
796.375061,327
796.49408,339
796.613037,336
796.732117,323
796.851135,334
796.970154,332
797.089233,335
797.208191,328
797.327271,319
797.446228,315
797.565186,326
797.684265,337
797.803223,323
797.922241,323
798.04126,323
798.160278,339
798.279297,318
798.398315,334
798.517273,318
798.636292,329
798.75531,324
798.874268,343
798.993286,317
799.112244,325
799.231323,320
799.350281,324
799.469238,335
799.588257,345
799.707153,323
799.826111,329
799.945129,335
800.064087,321
800.183044,324
800.302063,319
800.421021,334
800.539978,321
800.658936,337
800.777893,330
800.896912,327
801.015747,316
801.134705,335
801.253723,329
801.37262,326
801.491638,325
801.610535,326
801.729492,332
801.84845,336
801.967407,327
802.086243,312
802.205261,328
802.324158,333
802.443115,323
802.562073,324
802.680969,332
802.799927,319
802.918762,351
803.037659,330
803.156677,331
803.275574,334
803.39447,329
803.513428,344
803.632263,327
803.751221,325
803.870117,316
803.989014,331
804.107971,344
804.226746,331
804.345642,344
804.4646,325
804.583496,331
804.702393,324
804.821228,331
804.940125,335
805.059021,333
805.177917,332
805.296814,345
805.415649,329
805.534546,337
805.653442,323
805.772278,334
805.891113,331
806.01001,325
806.128906,314
806.247742,333
806.366577,334
806.485413,339
806.604309,331
806.723145,338
806.84198,329
806.960876,337
807.079712,335
807.198486,331
807.317383,331
807.436218,343
807.554993,311
807.673889,330
807.792725,333
807.91156,335
808.030396,335
808.14917,340
808.268005,337
808.386841,332
808.505676,322
808.624451,318
808.743286,331
808.862122,335
808.980896,328
809.099731,336
809.218506,323
809.337341,333
809.456116,326
809.57489,327
809.693726,328
809.8125,333
809.931274,334
810.050049,323
810.168884,332
810.287659,332
810.406372,319
810.525269,342
810.643982,316
810.762756,329
810.881531,301
811.000305,345
811.11908,328
811.237854,343
811.356567,346
811.475403,343
811.594116,323
811.71283,337
811.831604,332
811.950378,337
812.069153,334
812.187927,331
812.30658,331
812.425415,339
812.544128,327
812.662781,327
812.781616,335
812.900269,326
813.019043,334
813.137756,330
813.256531,332
813.375244,314
813.493896,335
813.612671,320
813.731384,331
813.850037,336
813.96875,332
814.087524,337
814.206238,325
814.324951,342
814.443604,340
814.562256,325
814.68103,332
814.799683,332
814.918335,338
815.037109,326
815.155762,321
815.274475,347
815.393188,341
815.511841,339
815.630554,323
815.749146,328
815.867859,325
815.986572,334
816.105164,326
816.223877,330
816.342529,322
816.461182,343
816.579895,317
816.698486,339
816.817139,335
816.935791,321
817.054504,338
817.173096,351
817.291748,335
817.4104,327
817.529053,319
817.647644,334
817.766235,316
817.884949,327
818.00354,331
818.122192,327
818.240845,336
818.359436,338
818.478088,332
818.59668,327
818.715271,313
818.833923,320
818.952515,325
819.071106,329
819.189758,311
819.30835,317
819.426941,318
819.545532,327
819.664124,322
819.782715,336
819.901306,315
820.019897,314
820.138489,326
820.25708,324
820.375671,306
820.494202,320
820.612732,315
820.731384,340
820.849915,325
820.968506,327
821.087097,319
821.205627,318
821.324158,322
821.442749,328
821.561279,325
821.679871,309
821.798401,319
821.916931,314
822.035461,323
822.154053,319
822.272583,316
822.391174,319
822.509583,307
822.628174,328
822.746704,318
822.865234,318
822.983765,330
823.102295,327
823.220825,311
823.339294,310
823.457825,297
823.576355,317
823.694824,309
823.813354,321
823.931885,328
824.050354,316
824.168884,317
824.287354,317
824.405823,313
824.524353,323
824.642822,319
824.761353,316
824.879822,309
824.998291,319
825.116699,322
825.235291,334
825.353699,327
825.472168,299
825.590637,325
825.709106,314
825.827576,310
825.946045,323
826.064453,319
826.182983,319
826.301392,325
826.4198,318
826.53833,324
826.656738,312
826.775208,317
826.893677,317
827.012024,310
827.130493,325
827.248962,292
827.36731,326
827.485779,311
827.604248,327
827.722595,311
827.841064,324
827.959412,311
828.077942,316
828.196289,321
828.314636,324
828.433105,316
828.551514,341
828.669861,307
828.78833,323
828.906677,319
829.025085,317
829.143433,317
829.261841,317
829.38031,308
829.498657,318
829.617004,321
829.735413,330
829.85376,315
829.972107,319
830.090515,293
830.208862,329
830.327209,315
830.445557,323
830.563904,313
830.682312,317
830.800659,309
830.919006,325
831.037354,317
831.155701,323
831.274048,322
831.392395,311
831.51062,327
831.629028,323
831.747314,312
831.865662,330
831.984009,309
832.102356,326
832.220642,317
832.338928,318
832.457275,313
832.575623,314
832.693909,311
832.812134,325
832.930481,309
833.048828,319
833.167114,313
833.2854,320
833.403687,313
833.521973,312
833.640259,321
833.758545,315
833.876831,315
833.995056,320
834.113281,320
834.231628,313
834.349915,311
834.468201,322
834.586426,311
834.704651,308
834.822998,329
834.941162,321
835.059448,322
835.177673,327
835.295959,325
835.414246,306
835.53241,306
835.650635,326
835.768921,319
835.887146,312
836.005371,332
836.123596,322
836.241821,312
836.360046,327
836.478271,320
836.596497,333
836.714722,316
836.832886,332
836.95105,307
837.069336,320
837.1875,315
837.305725,322
837.423889,305
837.542053,315
837.660339,310
837.778503,334
837.896667,316
838.014832,328
838.132996,310
838.25116,318
838.369385,309
838.487488,312
838.605713,310
838.723877,322
838.84198,302
838.960205,311
839.078308,324
839.196472,333
839.314636,305
839.4328,316
839.550964,316
839.669067,324
839.787231,323
839.905396,338
840.023499,300
840.141602,324
840.259766,321
840.377869,325
840.495972,333
840.614136,313
840.732239,315
840.850342,325
840.968445,333
841.086548,325
841.204651,312
841.322754,328
841.440918,312
841.55896,315
841.677002,307
841.795166,321
841.913208,319
842.031311,320
842.149353,315
842.267456,319
842.385498,321
842.503601,308
842.621643,307
842.739746,328
842.857788,317
842.97583,314
843.093933,316
843.211975,322
843.330017,296
843.44812,318
843.566101,304
843.684204,322
843.802246,317
843.920227,338
844.038269,325
844.156311,312
844.274292,299
844.392395,313
844.510376,319
844.628357,326
844.74646,315
844.864441,330
844.982422,317
845.100403,336
845.218384,307
845.336426,325
845.454468,329
845.572449,319
845.69043,307
845.808411,318
845.926453,302
846.044373,315
846.162354,318
846.280396,317
846.398315,302
846.516296,324
846.634216,325
846.752197,315
846.870178,316
846.988098,311
847.106079,312
847.22406,333
847.34198,321
847.4599,313
847.577881,322
847.695801,317
847.813782,314
847.931641,315
848.049561,325
848.167603,319
848.285461,301
848.403381,302
848.521362,302
848.639221,313
848.75708,306
848.875,320
848.99292,323
849.110901,320
849.22876,313
849.34668,325
849.464539,304
849.582458,322
849.700317,315
849.818176,327
849.936096,293
850.053955,323
850.171875,316
850.289673,313
850.407593,305
850.525452,308
850.643311,311
850.761169,330
850.878967,315
850.996887,329
851.114746,315
851.232544,317
851.350403,312
851.468262,317
851.58606,319
851.703979,320
851.821777,297
851.939636,313
852.057434,295
852.175232,338
852.293091,319
852.410889,316
852.528687,310
852.646545,315
852.764343,311
852.88208,317
852.999939,317
853.117676,313
853.235535,310
853.353271,318
853.471069,317
853.588928,323
853.706604,323
853.824402,310
853.9422,320
854.059998,315
854.177734,315
854.295532,312
854.413269,305
854.531006,321
854.648804,305
854.766541,310
854.884277,310
855.002014,315
855.119751,306
855.237549,322
855.355225,309
855.473022,312
855.590698,317
855.708435,325
855.826172,321
855.943848,318
856.061646,320
856.179321,316
856.296997,325
856.414795,326
856.53241,315
856.650085,314
856.767822,311
856.885559,317
857.003174,323
857.120911,317
857.238586,331
857.356201,337
857.473938,309
857.591614,324
857.709351,308
857.826965,303
857.944641,318
858.062317,316
858.179993,319
858.297668,322
858.415283,304
858.532959,321
858.650574,304
858.768188,320
858.885803,312
859.003479,323
859.121094,310
859.23877,306
859.356384,310
859.473999,310
859.591675,328
859.709229,325
859.826843,311
859.944458,319
860.062012,311
860.179626,328
860.297302,309
860.414856,325
860.532471,315
860.650024,321
860.767639,311
860.885193,326
861.002808,332
861.120361,316
861.237976,319
861.35553,312
861.473022,303
861.590698,325
861.708191,325
861.825745,318
861.943298,309
862.060852,311
862.178406,325
862.295959,324
862.413513,308
862.531006,322
862.64856,305
862.766113,326
862.883667,306
863.00116,312
863.118713,315
863.236206,317
863.353699,316
863.471252,314
863.588745,311
863.706177,320
863.82373,309
863.941162,324
864.058716,322
864.176208,320
864.29364,306
864.411194,320
864.528687,315
864.646118,322
864.763611,317
864.881042,328
864.998535,313
865.116028,328
865.233459,321
865.350891,326
865.468384,299
865.585754,320
865.703308,317
865.820679,322
865.938171,314
866.055542,322
866.173035,313
866.290466,315
866.407837,326
866.52533,323
866.6427,321
866.760071,316
866.877563,310
866.994934,315
867.112305,318
867.229736,316
867.347107,324
867.464539,314
867.58197,316
867.699341,314
867.81665,301
867.934082,318
868.051453,310
868.168823,323
868.286194,305
868.403564,326
868.520935,319
868.638306,316
868.755676,312
868.872986,320
868.990295,321
869.107727,320
869.225037,309
869.342346,322
869.459717,314
869.577026,327
869.694336,308
869.811707,322
869.929016,319
870.046326,320
870.163635,308
870.280945,321
870.398254,316
870.515564,316
870.632812,306
870.750183,331
870.867432,318
870.984741,322
871.102051,295
871.219299,322
871.336609,312
871.453918,310
871.571106,336
871.688416,327
871.805664,313
871.922852,318
872.040222,307
872.157471,325
872.274719,308
872.391968,318
872.509155,311
872.626465,325
872.743652,309
872.860962,322
872.978149,308
873.095337,303
873.212646,308
873.329834,315
873.44696,308
873.564209,315
873.681396,315
873.798645,314
873.915894,314
874.03302,310
874.150208,318
874.267456,314
874.384583,297
874.501831,311
874.618958,318
874.736145,324
874.853333,317
874.970459,323
875.087646,316
875.204834,326
875.32196,313
875.439148,327
875.556274,320
875.673401,329
875.790527,323
875.907715,313
876.024841,320
876.141968,321
876.259094,304
876.376282,317
876.493347,313
876.610474,310
876.7276,315
876.844727,312
876.961853,311
877.078918,321
877.195984,310
877.313171,339
877.430237,329
877.547302,319
877.664368,322
877.781433,310
877.898499,307
878.015625,328
878.13269,313
878.249695,315
878.366821,304
878.483887,329
878.600952,305
878.717957,322
878.834961,306
878.952087,320
879.069092,307
879.186157,318
879.303162,307
879.420227,315
879.537231,313
879.654236,323
879.77124,322
879.888306,328
880.005249,310
880.122314,318
880.239319,327
880.356323,319
880.473328,319
880.590271,310
880.707275,314
880.824341,329
880.941284,334
881.058228,309
881.175232,316
881.292236,316
881.40918,301
881.526123,315
881.643066,321
881.760071,318
881.877014,312
881.993958,317
882.11084,326
882.227783,333
882.344727,313
882.46167,325
882.578613,311
882.695618,316
882.812439,297
882.929382,323
883.046326,319
883.163208,316
883.280151,316
883.397034,319
883.513916,311
883.630798,317
883.747742,306
883.864563,321
883.981506,308
884.098389,329
884.21521,319
884.332153,308
884.448975,315
884.565796,315
884.682678,325
884.7995,320
884.916443,315
885.033264,323
885.150085,314
885.266968,332
885.383789,329
885.500671,321
885.617493,316
885.734314,325
885.851196,319
885.967896,324
886.084717,319
886.201599,311
886.318359,324
886.435181,306
886.552002,317
886.668762,323
886.785645,326
886.902344,321
887.019165,316
887.135925,317
887.252747,303
887.369446,324
887.486267,307
887.603027,323
887.719788,326
887.836548,321
887.953247,315
888.070068,326
888.186829,307
888.303528,318
888.420288,315
888.536987,325
888.653687,318
888.770447,317
888.887146,320
889.003967,327
889.120667,322
889.237305,321
889.354065,324
889.470703,313
889.587463,315
889.704163,320
889.820862,319
889.937561,312
890.054199,325
890.170837,313
890.287598,311
890.404236,327
890.520874,314
890.637634,325
890.754211,310
890.87085,335
890.987549,309
891.104187,315
891.220886,303
891.337463,306
891.454102,319
891.57074,328
891.687378,302
891.804077,320
891.920654,304
892.037231,323
892.15387,313
892.270447,326
892.387085,310
892.503723,316
892.6203,305
892.736877,324
892.853516,318
892.970032,318
893.08667,314
893.203186,329
893.319763,314
893.43634,316
893.552917,318
893.669556,313
893.786011,328
893.902588,310
894.019165,315
894.135681,323
894.252197,307
894.368835,333
894.485291,321
894.601868,320
894.718384,312
894.8349,316
894.951355,324
895.067932,317
895.184448,314
895.300964,320
895.417419,313
895.533936,320
895.650452,319
895.766907,304
895.883423,322
895.999878,319
896.116333,320
896.232849,323
896.349304,308
896.465759,328
896.582214,313
896.698669,329
896.815125,319
896.931641,314
897.048035,311
897.164551,324
897.280884,326
897.397339,310
897.513794,312
897.630249,323
897.746582,309
897.863098,326
897.979431,304
898.095886,318
898.212341,305
898.328674,316
898.445129,320
898.561462,317
898.677795,301
898.794312,319
898.910645,317
899.026978,335
899.143433,320
899.259766,326
899.37616,308
899.492493,336
899.608765,314
899.725159,317
899.841553,307
899.957947,319
900.07428,314
900.190552,321
900.306946,310
900.423157,313
900.53949,327
900.655884,324
900.772156,317
900.888489,311
901.004822,302
901.121033,336
901.237366,312
901.353699,315
901.46991,308
901.586304,327
901.702515,321
901.818787,313
901.93512,323
902.051331,312
902.167603,301
902.283875,332
902.400085,305
902.516418,323
902.632629,321
902.74884,311
902.865112,307
902.981384,315
903.097595,329
903.213867,333
903.330017,297
903.446289,328
903.5625,307
903.67865,319
903.794922,319
903.911072,323
904.027344,331
904.143494,317
904.259705,302
904.375916,323
904.492065,303
904.608215,336
904.724426,317
904.840576,320
904.956726,314
905.072876,319
905.189087,322
905.305176,325
905.421387,328
905.537537,328
905.653687,321
905.769775,318
905.885925,302
906.002014,308
906.118164,316
906.234314,328
906.350403,307
906.466492,320
906.582642,321
906.69873,313
906.814758,313
906.930908,321
907.046936,318
907.163086,336
907.279175,316
907.395264,305
907.511353,327
907.62738,329
907.743408,314
907.859497,316
907.975525,313
908.091553,318
908.207703,304
908.32373,330
908.439758,322
908.555786,313
908.671814,319
908.787842,312
908.90387,316
909.019775,316
909.135864,304
909.251892,321
909.367859,322
909.483826,331
909.599854,313
909.715881,318
909.831848,310
909.947815,319
910.063782,319
910.179749,308
910.295776,313
910.411743,328
910.527649,316
910.643616,324
910.759583,318
910.875488,320
910.991455,313
911.107361,324
911.223267,309
911.339294,336
911.4552,305
911.571106,328
911.687073,310
911.802979,325
911.918823,316
912.034729,330
912.150635,322
912.266602,321
912.382446,310
912.498352,320
912.614197,305
912.730103,328
912.846008,297
