792.44574,296
792.56488,360
792.68396,401
792.80304,368
792.92218,336
793.041199,319
793.160339,325
793.279419,331
793.398499,326
793.517578,317
793.636658,311
793.755737,335
793.874817,343
793.993896,346
794.112976,318
794.232056,325
794.351074,323
794.470215,338
794.589233,338
794.708313,342
794.827393,323
794.946411,334
795.065552,343
795.18457,348
795.303589,338
795.422668,329
795.541687,330
795.660767,329
795.779846,341
795.898865,331
796.017883,325
796.136963,343
796.255981,333
796.375061,339
796.49408,328
796.613037,336
796.732117,330
796.851135,316
796.970154,326
797.089233,328
797.208191,343
797.327271,333
797.446228,318
797.565186,340
797.684265,308
797.803223,321
797.922241,329
798.04126,334
798.160278,314
798.279297,318
798.398315,324
798.517273,327
798.636292,334
798.75531,320
798.874268,334
798.993286,344
799.112244,331
799.231323,317
799.350281,329
799.469238,340
799.588257,323
799.707153,334
799.826111,314
799.945129,321
800.064087,330
800.183044,319
800.302063,315
800.421021,323
800.539978,339
800.658936,322
800.777893,340
800.896912,328
801.015747,322
801.134705,328
801.253723,320
801.37262,330
801.491638,313
801.610535,338
801.729492,327
801.84845,333
801.967407,334
802.086243,316
802.205261,323
802.324158,329
802.443115,334
802.562073,316
802.680969,329
802.799927,337
802.918762,323
803.037659,345
803.156677,338
803.275574,346
803.39447,322
803.513428,338
803.632263,313
803.751221,349
803.870117,329
803.989014,334
804.107971,336
804.226746,339
804.345642,344
804.4646,326
804.583496,329
804.702393,324
804.821228,324
804.940125,331
805.059021,336
805.177917,334
805.296814,329
805.415649,341
805.534546,333
805.653442,341
805.772278,344
805.891113,315
806.01001,332
806.128906,325
806.247742,323
806.366577,338
806.485413,330
806.604309,323
806.723145,336
806.84198,334
806.960876,333
807.079712,322
807.198486,323
807.317383,341
807.436218,333
807.554993,327
807.673889,334
807.792725,336
807.91156,324
808.030396,335
808.14917,316
808.268005,345
808.386841,326
808.505676,336
808.624451,336
808.743286,328
808.862122,327
808.980896,332
809.099731,339
809.218506,345
809.337341,327
809.456116,322
809.57489,330
809.693726,323
809.8125,335
809.931274,343
810.050049,330
810.168884,333
810.287659,331
810.406372,351
810.525269,317
810.643982,338
810.762756,333
810.881531,327
811.000305,350
811.11908,324
811.237854,341
811.356567,341
811.475403,328
811.594116,326
811.71283,346
811.831604,339
811.950378,316
812.069153,341
812.187927,330
812.30658,343
812.425415,333
812.544128,333
812.662781,341
812.781616,329
812.900269,349
813.019043,336
813.137756,325
813.256531,344
813.375244,333
813.493896,342
813.612671,345
813.731384,347
813.850037,323
813.96875,335
814.087524,315
814.206238,328
814.324951,320
814.443604,324
814.562256,331
814.68103,331
814.799683,335
814.918335,324
815.037109,332
815.155762,334
815.274475,337
815.393188,314
815.511841,337
815.630554,327
815.749146,332
815.867859,327
815.986572,321
816.105164,337
816.223877,341
816.342529,332
816.461182,334
816.579895,327
816.698486,329
816.817139,321
816.935791,327
817.054504,339
817.173096,319
817.291748,331
817.4104,326
817.529053,334
817.647644,334
817.766235,330
817.884949,330
818.00354,333
818.122192,335
818.240845,330
818.359436,338
818.478088,328
818.59668,319
818.715271,327
818.833923,320
818.952515,327
819.071106,314
819.189758,328
819.30835,329
819.426941,316
819.545532,318
819.664124,327
819.782715,334
819.901306,313
820.019897,331
820.138489,319
820.25708,293
820.375671,324
820.494202,317
820.612732,330
820.731384,320
820.849915,312
820.968506,329
821.087097,320
821.205627,329
821.324158,323
821.442749,314
821.561279,321
821.679871,319
821.798401,340
821.916931,318
822.035461,312
822.154053,327
822.272583,325
822.391174,323
822.509583,314
822.628174,330
822.746704,318
822.865234,317
822.983765,312
823.102295,323
823.220825,318
823.339294,322
823.457825,314
823.576355,313
823.694824,310
823.813354,332
823.931885,319
824.050354,319
824.168884,327
824.287354,326
824.405823,307
824.524353,317
824.642822,331
824.761353,319
824.879822,311
824.998291,321
825.116699,308
825.235291,330
825.353699,314
825.472168,317
825.590637,325
825.709106,298
825.827576,321
825.946045,322
826.064453,322
826.182983,318
826.301392,313
826.4198,322
826.53833,319
826.656738,322
826.775208,321
826.893677,310
827.012024,322
827.130493,316
827.248962,327
827.36731,319
827.485779,320
827.604248,321
827.722595,314
827.841064,318
827.959412,334
828.077942,319
828.196289,307
828.314636,311
828.433105,313
828.551514,318
828.669861,318
828.78833,327
828.906677,314
829.025085,317
829.143433,325
829.261841,317
829.38031,326
829.498657,325
829.617004,327
829.735413,322
829.85376,314
829.972107,315
830.090515,323
830.208862,315
830.327209,314
830.445557,318
830.563904,319
830.682312,311
830.800659,320
830.919006,316
831.037354,327
831.155701,311
831.274048,313
831.392395,314
831.51062,307
831.629028,327
831.747314,333
831.865662,312
831.984009,312
832.102356,320
832.220642,317
832.338928,315
832.457275,314
832.575623,305
832.693909,327
832.812134,320
832.930481,322
833.048828,316
833.167114,325
833.2854,318
833.403687,330
833.521973,329
833.640259,313
833.758545,310
833.876831,326
833.995056,320
834.113281,311
834.231628,329
834.349915,328
834.468201,320
834.586426,331
834.704651,313
834.822998,327
834.941162,304
835.059448,334
835.177673,313
835.295959,322
835.414246,314
835.53241,327
835.650635,313
835.768921,316
835.887146,320
836.005371,308
836.123596,319
836.241821,309
836.360046,316
836.478271,327
836.596497,311
836.714722,328
836.832886,325
836.95105,323
837.069336,318
837.1875,309
837.305725,308
837.423889,311
837.542053,319
837.660339,329
837.778503,312
837.896667,314
838.014832,321
838.132996,320
838.25116,322
838.369385,330
838.487488,324
838.605713,305
838.723877,335
838.84198,320
838.960205,320
839.078308,315
839.196472,314
839.314636,327
839.4328,323
839.550964,317
839.669067,324
839.787231,324
839.905396,331
840.023499,325
840.141602,319
840.259766,316
840.377869,322
840.495972,311
840.614136,328
840.732239,331
840.850342,299
840.968445,312
841.086548,303
841.204651,330
841.322754,306
841.440918,318
841.55896,302
841.677002,316
841.795166,324
841.913208,310
842.031311,330
842.149353,330
842.267456,310
842.385498,319
842.503601,304
842.621643,315
842.739746,319
842.857788,325
842.97583,309
843.093933,327
843.211975,311
843.330017,329
843.44812,318
843.566101,326
843.684204,310
843.802246,322
843.920227,321
844.038269,315
844.156311,330
844.274292,315
844.392395,314
844.510376,316
844.628357,298
844.74646,318
844.864441,326
844.982422,320
845.100403,313
845.218384,317
845.336426,319
845.454468,310
845.572449,308
845.69043,321
845.808411,318
845.926453,315
846.044373,316
846.162354,326
846.280396,322
846.398315,306
846.516296,312
846.634216,312
846.752197,318
846.870178,306
846.988098,313
847.106079,319
847.22406,321
847.34198,312
847.4599,306
847.577881,320
847.695801,316
847.813782,314
847.931641,310
848.049561,318
848.167603,324
848.285461,326
848.403381,312
848.521362,322
848.639221,316
848.75708,307
848.875,312
848.99292,311
849.110901,311
849.22876,326
849.34668,316
849.464539,332
849.582458,310
849.700317,314
849.818176,316
849.936096,322
850.053955,313
850.171875,315
850.289673,310
850.407593,314
850.525452,317
850.643311,335
850.761169,326
850.878967,329
850.996887,312
851.114746,321
851.232544,333
851.350403,316
851.468262,312
851.58606,312
851.703979,307
851.821777,319
851.939636,324
852.057434,312
852.175232,320
852.293091,322
852.410889,322
852.528687,314
852.646545,306
852.764343,332
852.88208,318
852.999939,319
853.117676,318
853.235535,312
853.353271,308
853.471069,312
853.588928,318
853.706604,311
853.824402,315
853.9422,319
854.059998,320
854.177734,320
854.295532,311
854.413269,313
854.531006,326
854.648804,331
854.766541,305
854.884277,325
855.002014,312
855.119751,322
855.237549,320
855.355225,323
855.473022,330
855.590698,337
855.708435,313
855.826172,311
855.943848,325
856.061646,328
856.179321,316
856.296997,306
856.414795,327
856.53241,326
856.650085,330
856.767822,317
856.885559,327
857.003174,322
857.120911,316
857.238586,317
857.356201,312
857.473938,324
857.591614,310
857.709351,315
857.826965,310
857.944641,319
858.062317,312
858.179993,301
858.297668,320
858.415283,313
858.532959,323
858.650574,331
858.768188,323
858.885803,322
859.003479,315
859.121094,323
859.23877,309
859.356384,324
859.473999,327
859.591675,312
859.709229,312
859.826843,307
859.944458,316
860.062012,319
860.179626,313
860.297302,317
860.414856,325
860.532471,314
860.650024,322
860.767639,310
860.885193,317
861.002808,328
861.120361,295
861.237976,326
861.35553,325
861.473022,308
861.590698,311
861.708191,308
861.825745,327
861.943298,315
862.060852,294
862.178406,321
862.295959,317
862.413513,322
862.531006,311
862.64856,313
862.766113,315
862.883667,311
863.00116,327
863.118713,313
863.236206,324
863.353699,318
863.471252,309
863.588745,312
863.706177,314
863.82373,314
863.941162,322
864.058716,325
864.176208,321
864.29364,326
864.411194,302
864.528687,328
864.646118,315
864.763611,305
864.881042,320
864.998535,320
865.116028,317
865.233459,325
865.350891,318
865.468384,314
865.585754,309
865.703308,315
865.820679,306
865.938171,321
866.055542,323
866.173035,321
866.290466,319
866.407837,308
866.52533,324
866.6427,316
866.760071,301
866.877563,316
866.994934,315
867.112305,325
867.229736,323
867.347107,321
867.464539,315
867.58197,311
867.699341,316
867.81665,314
867.934082,313
868.051453,306
868.168823,319
868.286194,316
868.403564,314
868.520935,315
868.638306,315
868.755676,322
868.872986,319
868.990295,305
869.107727,317
869.225037,313
869.342346,315
869.459717,327
869.577026,319
869.694336,320
869.811707,325
869.929016,318
870.046326,316
870.163635,306
870.280945,316
870.398254,310
870.515564,320
870.632812,331
870.750183,321
870.867432,315
870.984741,306
871.102051,319
871.219299,308
871.336609,310
871.453918,322
871.571106,318
871.688416,312
871.805664,327
871.922852,335
872.040222,325
872.157471,320
872.274719,328
872.391968,325
872.509155,326
872.626465,318
872.743652,317
872.860962,328
872.978149,320
873.095337,311
873.212646,322
873.329834,319
873.44696,316
873.564209,324
873.681396,333
873.798645,318
873.915894,332
874.03302,315
874.150208,315
874.267456,321
874.384583,328
874.501831,316
874.618958,323
874.736145,316
874.853333,323
874.970459,318
875.087646,320
875.204834,317
875.32196,332
875.439148,308
875.556274,312
875.673401,327
875.790527,308
875.907715,313
876.024841,315
876.141968,309
876.259094,307
876.376282,328
876.493347,323
876.610474,313
876.7276,317
876.844727,323
876.961853,306
877.078918,316
877.195984,315
877.313171,318
877.430237,336
877.547302,313
877.664368,324
877.781433,301
877.898499,324
878.015625,317
878.13269,329
878.249695,329
878.366821,337
878.483887,325
878.600952,307
878.717957,316
878.834961,318
878.952087,308
879.069092,315
879.186157,307
879.303162,327
879.420227,307
879.537231,335
879.654236,307
879.77124,318
879.888306,311
880.005249,308
880.122314,327
880.239319,331
880.356323,317
880.473328,327
880.590271,315
880.707275,326
880.824341,307
880.941284,311
881.058228,314
881.175232,329
881.292236,321
881.40918,307
881.526123,324
881.643066,317
881.760071,315
881.877014,312
881.993958,311
882.11084,337
882.227783,319
882.344727,311
882.46167,328
882.578613,320
882.695618,309
882.812439,315
882.929382,330
883.046326,322
883.163208,323
883.280151,314
883.397034,317
883.513916,323
883.630798,322
883.747742,317
883.864563,311
883.981506,309
884.098389,315
884.21521,319
884.332153,326
884.448975,317
884.565796,314
884.682678,321
884.7995,317
884.916443,311
885.033264,324
885.150085,325
885.266968,312
885.383789,320
885.500671,316
885.617493,313
885.734314,301
885.851196,318
885.967896,319
886.084717,303
886.201599,304
886.318359,315
886.435181,329
886.552002,322
886.668762,321
886.785645,319
886.902344,316
887.019165,326
887.135925,309
887.252747,328
887.369446,321
887.486267,323
887.603027,324
887.719788,319
887.836548,328
887.953247,323
888.070068,316
888.186829,315
888.303528,325
888.420288,326
888.536987,319
888.653687,323
888.770447,320
888.887146,319
889.003967,324
889.120667,327
889.237305,319
889.354065,318
889.470703,315
889.587463,317
889.704163,319
889.820862,318
889.937561,311
890.054199,309
890.170837,317
890.287598,328
890.404236,306
890.520874,316
890.637634,315
890.754211,306
890.87085,311
890.987549,313
891.104187,315
891.220886,323
891.337463,315
891.454102,317
891.57074,317
891.687378,335
891.804077,320
891.920654,323
892.037231,315
892.15387,321
892.270447,319
892.387085,322
892.503723,312
892.6203,339
892.736877,321
892.853516,333
892.970032,345
893.08667,320
893.203186,318
893.319763,312
893.43634,330
893.552917,304
893.669556,314
893.786011,318
893.902588,318
894.019165,311
894.135681,324
894.252197,307
894.368835,327
894.485291,330
894.601868,320
894.718384,323
894.8349,297
894.951355,318
895.067932,314
895.184448,324
895.300964,306
895.417419,321
895.533936,313
895.650452,306
895.766907,329
895.883423,320
895.999878,337
896.116333,314
896.232849,316
896.349304,324
896.465759,309
896.582214,316
896.698669,328
896.815125,331
896.931641,324
897.048035,319
897.164551,312
897.280884,329
897.397339,331
897.513794,316
897.630249,314
897.746582,312
897.863098,321
897.979431,318
898.095886,327
898.212341,322
898.328674,316
898.445129,326
898.561462,323
898.677795,318
898.794312,331
898.910645,317
899.026978,297
899.143433,325
899.259766,331
899.37616,310
899.492493,332
899.608765,325
899.725159,323
899.841553,322
899.957947,317
900.07428,326
900.190552,314
900.306946,320
900.423157,315
900.53949,311
900.655884,316
900.772156,313
900.888489,314
901.004822,320
901.121033,314
901.237366,318
901.353699,321
901.46991,324
901.586304,311
901.702515,324
901.818787,328
901.93512,325
902.051331,317
902.167603,322
902.283875,322
902.400085,310
902.516418,309
902.632629,309
902.74884,317
902.865112,315
902.981384,302
903.097595,315
903.213867,302
903.330017,322
903.446289,325
903.5625,309
903.67865,323
903.794922,334
903.911072,314
904.027344,317
904.143494,305
904.259705,331
904.375916,303
904.492065,324
904.608215,316
904.724426,312
904.840576,306
904.956726,322
905.072876,321
905.189087,323
905.305176,324
905.421387,313
905.537537,319
905.653687,338
905.769775,317
905.885925,319
906.002014,325
906.118164,316
906.234314,322
906.350403,317
906.466492,306
906.582642,314
906.69873,316
906.814758,319
906.930908,325
907.046936,321
907.163086,315
907.279175,325
907.395264,325
907.511353,319
907.62738,305
907.743408,319
907.859497,332
907.975525,329
908.091553,331
908.207703,312
908.32373,316
908.439758,321
908.555786,326
908.671814,317
908.787842,318
908.90387,317
909.019775,319
909.135864,331
909.251892,311
909.367859,325
909.483826,315
909.599854,336
909.715881,329
909.831848,320
909.947815,309
910.063782,314
910.179749,317
910.295776,322
910.411743,323
910.527649,315
910.643616,313
910.759583,319
910.875488,323
910.991455,326
911.107361,305
911.223267,332
911.339294,311
911.4552,317
911.571106,308
911.687073,321
911.802979,298
911.918823,308
912.034729,334
912.150635,321
912.266602,327
912.382446,317
912.498352,303
912.614197,306
912.730103,323
912.846008,319
792.44574,317
792.56488,356
792.68396,393
792.80304,384
792.92218,322
793.041199,328
793.160339,315
793.279419,341
793.398499,337
793.517578,318
793.636658,323
793.755737,328
793.874817,341
793.993896,354
794.112976,332
794.232056,328
794.351074,313
794.470215,329
794.589233,322
794.708313,346
794.827393,311
794.946411,338
795.065552,346
795.18457,344
795.303589,328
795.422668,338
795.541687,332
795.660767,326
795.779846,329
795.898865,322
796.017883,343
796.136963,316
796.255981,322
796.375061,329
796.49408,341
796.613037,347
796.732117,329
796.851135,335
796.970154,337
797.089233,339
797.208191,342
797.327271,342
797.446228,348
797.565186,330
797.684265,328
797.803223,324
797.922241,337
798.04126,331
798.160278,340
798.279297,343
798.398315,327
798.517273,313
798.636292,330
798.75531,331
798.874268,336
798.993286,335
799.112244,334
799.231323,334
799.350281,325
799.469238,347
799.588257,333
799.707153,336
799.826111,322
799.945129,330
800.064087,328
800.183044,330
800.302063,327
800.421021,328
800.539978,321
800.658936,323
800.777893,324
800.896912,340
801.015747,321
801.134705,334
801.253723,315
801.37262,323
801.491638,315
801.610535,345
801.729492,335
801.84845,327
801.967407,328
802.086243,332
802.205261,321
802.324158,332
802.443115,325
802.562073,326
802.680969,329
802.799927,325
802.918762,330
803.037659,334
803.156677,330
803.275574,328
803.39447,316
803.513428,343
803.632263,324
803.751221,330
803.870117,327
803.989014,315
804.107971,316
804.226746,332
804.345642,331
804.4646,332
804.583496,328
804.702393,346
804.821228,333
804.940125,341
805.059021,333
805.177917,321
805.296814,327
805.415649,333
805.534546,312
805.653442,349
805.772278,339
805.891113,325
806.01001,340
806.128906,332
806.247742,332
806.366577,322
806.485413,337
806.604309,334
806.723145,324
806.84198,324
806.960876,334
807.079712,331
807.198486,343
807.317383,336
807.436218,331
807.554993,332
807.673889,330
807.792725,327
807.91156,321
808.030396,334
808.14917,321
808.268005,335
808.386841,317
808.505676,334
808.624451,340
808.743286,335
808.862122,337
808.980896,332
809.099731,332
809.218506,311
809.337341,342
809.456116,328
809.57489,330
809.693726,321
809.8125,324
809.931274,326
810.050049,333
810.168884,335
810.287659,331
810.406372,331
810.525269,324
810.643982,331
810.762756,325
810.881531,320
811.000305,333
811.11908,319
811.237854,334
811.356567,331
811.475403,343
811.594116,328
811.71283,328
811.831604,336
811.950378,339
812.069153,339
812.187927,346
812.30658,335
812.425415,335
812.544128,338
812.662781,333
812.781616,325
812.900269,331
813.019043,341
813.137756,325
813.256531,347
813.375244,336
813.493896,339
813.612671,330
813.731384,336
813.850037,322
813.96875,337
814.087524,341
814.206238,343
814.324951,343
814.443604,341
814.562256,332
814.68103,332
814.799683,345
814.918335,340
815.037109,339
815.155762,334
815.274475,342
815.393188,342
815.511841,335
815.630554,333
815.749146,321
815.867859,320
815.986572,330
816.105164,335
816.223877,335
816.342529,334
816.461182,309
816.579895,331
816.698486,330
816.817139,330
816.935791,318
817.054504,346
817.173096,352
817.291748,321
817.4104,330
817.529053,348
817.647644,331
817.766235,329
817.884949,344
818.00354,333
818.122192,331
818.240845,329
818.359436,323
818.478088,342
818.59668,323
818.715271,319
818.833923,302
818.952515,320
819.071106,325
819.189758,322
819.30835,324
819.426941,320
819.545532,325
819.664124,333
819.782715,339
819.901306,325
820.019897,325
820.138489,327
820.25708,306
820.375671,312
820.494202,323
820.612732,311
820.731384,306
820.849915,315
820.968506,330
821.087097,327
821.205627,320
821.324158,314
821.442749,331
821.561279,328
821.679871,316
821.798401,328
821.916931,303
822.035461,337
822.154053,322
822.272583,314
822.391174,320
822.509583,320
822.628174,331
822.746704,318
822.865234,317
822.983765,329
823.102295,310
823.220825,317
823.339294,310
823.457825,317
823.576355,310
823.694824,322
823.813354,318
823.931885,323
824.050354,327
824.168884,325
824.287354,318
824.405823,317
824.524353,318
824.642822,319
824.761353,319
824.879822,326
824.998291,316
825.116699,321
825.235291,312
825.353699,321
825.472168,326
825.590637,315
825.709106,321
825.827576,322
825.946045,315
826.064453,321
826.182983,316
826.301392,325
826.4198,319
826.53833,326
826.656738,313
826.775208,317
826.893677,324
827.012024,313
827.130493,312
827.248962,317
827.36731,324
827.485779,321
827.604248,328
827.722595,320
827.841064,319
827.959412,313
828.077942,314
828.196289,317
828.314636,314
828.433105,320
828.551514,309
828.669861,320
828.78833,315
828.906677,322
829.025085,319
829.143433,312
829.261841,318
829.38031,318
829.498657,326
829.617004,313
829.735413,323
829.85376,315
829.972107,303
830.090515,317
830.208862,325
830.327209,316
830.445557,324
830.563904,325
830.682312,311
830.800659,307
830.919006,321
831.037354,324
831.155701,326
831.274048,313
831.392395,312
831.51062,314
831.629028,311
831.747314,312
831.865662,294
831.984009,318
832.102356,316
832.220642,320
832.338928,324
832.457275,322
832.575623,330
832.693909,308
832.812134,325
832.930481,307
833.048828,312
833.167114,326
833.2854,333
833.403687,318
833.521973,310
833.640259,317
833.758545,314
833.876831,319
833.995056,308
834.113281,321
834.231628,321
834.349915,319
834.468201,304
834.586426,323
834.704651,313
834.822998,319
834.941162,311
835.059448,319
835.177673,324
835.295959,331
835.414246,324
835.53241,307
835.650635,330
835.768921,319
835.887146,309
836.005371,319
836.123596,327
836.241821,315
836.360046,322
836.478271,312
836.596497,321
836.714722,316
836.832886,316
836.95105,319
837.069336,314
837.1875,312
837.305725,312
837.423889,323
837.542053,323
837.660339,315
837.778503,327
837.896667,327
838.014832,324
838.132996,321
838.25116,310
838.369385,321
838.487488,309
838.605713,325
838.723877,321
838.84198,327
838.960205,317
839.078308,309
839.196472,325
839.314636,319
839.4328,312
839.550964,319
839.669067,315
839.787231,313
839.905396,321
840.023499,326
840.141602,323
840.259766,304
840.377869,315
840.495972,324
840.614136,321
840.732239,325
840.850342,314
840.968445,341
841.086548,316
841.204651,302
841.322754,316
841.440918,303
841.55896,326
841.677002,329
841.795166,316
841.913208,306
842.031311,320
842.149353,319
842.267456,307
842.385498,312
842.503601,325
842.621643,316
842.739746,324
842.857788,319
842.97583,309
843.093933,324
843.211975,327
843.330017,325
843.44812,314
843.566101,317
843.684204,304
843.802246,304
843.920227,324
844.038269,321
844.156311,325
844.274292,309
844.392395,314
844.510376,336
844.628357,307
844.74646,305
844.864441,302
844.982422,322
845.100403,322
845.218384,311
845.336426,313
845.454468,325
845.572449,311
845.69043,334
845.808411,320
845.926453,309
846.044373,326
846.162354,340
846.280396,317
846.398315,331
846.516296,319
846.634216,321
846.752197,316
846.870178,331
846.988098,318
847.106079,316
847.22406,316
847.34198,316
847.4599,321
847.577881,313
847.695801,317
847.813782,320
847.931641,318
848.049561,322
848.167603,316
848.285461,314
848.403381,329
848.521362,321
848.639221,306
848.75708,322
848.875,312
848.99292,321
849.110901,308
849.22876,318
849.34668,317
849.464539,326
849.582458,309
849.700317,320
849.818176,317
849.936096,313
850.053955,310
850.171875,324
850.289673,316
850.407593,327
850.525452,308
850.643311,318
850.761169,297
850.878967,329
850.996887,312
851.114746,332
851.232544,318
851.350403,311
851.468262,318
851.58606,316
851.703979,304
851.821777,322
851.939636,318
852.057434,322
852.175232,325
852.293091,323
852.410889,308
852.528687,311
852.646545,322
852.764343,329
852.88208,310
852.999939,312
853.117676,316
853.235535,313
853.353271,310
853.471069,321
853.588928,311
853.706604,331
853.824402,305
853.9422,320
854.059998,308
854.177734,323
854.295532,326
854.413269,316
854.531006,316
854.648804,313
854.766541,307
854.884277,336
855.002014,318
855.119751,327
855.237549,312
855.355225,311
855.473022,324
855.590698,314
855.708435,309
855.826172,307
855.943848,306
856.061646,315
856.179321,314
856.296997,327
856.414795,315
856.53241,310
856.650085,317
856.767822,316
856.885559,323
857.003174,332
857.120911,316
857.238586,312
857.356201,311
857.473938,323
857.591614,321
857.709351,316
857.826965,323
857.944641,322
858.062317,317
858.179993,317
858.297668,309
858.415283,322
858.532959,310
858.650574,320
858.768188,320
858.885803,307
859.003479,321
859.121094,324
859.23877,323
859.356384,317
859.473999,314
859.591675,327
859.709229,312
859.826843,313
859.944458,301
860.062012,319
860.179626,317
860.297302,317
860.414856,312
860.532471,320
860.650024,311
860.767639,328
860.885193,316
861.002808,329
861.120361,321
861.237976,336
861.35553,324
861.473022,313
861.590698,317
861.708191,320
861.825745,320
861.943298,319
862.060852,310
862.178406,326
862.295959,315
862.413513,312
862.531006,324
862.64856,316
862.766113,318
862.883667,331
863.00116,317
863.118713,319
863.236206,317
863.353699,325
863.471252,305
863.588745,310
863.706177,319
863.82373,316
863.941162,310
864.058716,313
864.176208,305
864.29364,307
864.411194,309
864.528687,333
864.646118,324
864.763611,318
864.881042,319
864.998535,325
865.116028,313
865.233459,312
865.350891,315
865.468384,314
865.585754,318
865.703308,324
865.820679,316
865.938171,297
866.055542,325
866.173035,323
866.290466,314
866.407837,335
866.52533,321
866.6427,322
866.760071,308
866.877563,313
866.994934,335
867.112305,319
867.229736,321
867.347107,316
867.464539,321
867.58197,313
867.699341,333
867.81665,332
867.934082,313
868.051453,314
868.168823,317
868.286194,324
868.403564,317
868.520935,320
868.638306,318
868.755676,324
868.872986,322
868.990295,323
869.107727,314
869.225037,329
869.342346,325
869.459717,316
869.577026,321
869.694336,308
869.811707,324
869.929016,313
870.046326,324
870.163635,313
870.280945,312
870.398254,321
870.515564,321
870.632812,315
870.750183,321
870.867432,320
870.984741,317
871.102051,316
871.219299,318
871.336609,326
871.453918,326
871.571106,316
871.688416,322
871.805664,311
871.922852,325
872.040222,318
872.157471,326
872.274719,331
872.391968,320
872.509155,307
872.626465,304
872.743652,313
872.860962,329
872.978149,320
873.095337,311
873.212646,315
873.329834,325
873.44696,324
873.564209,316
873.681396,330
873.798645,315
873.915894,323
874.03302,324
874.150208,314
874.267456,320
874.384583,312
874.501831,330
874.618958,326
874.736145,322
874.853333,320
874.970459,316
875.087646,316
875.204834,313
875.32196,319
875.439148,324
875.556274,317
875.673401,315
875.790527,325
875.907715,319
876.024841,315
876.141968,307
876.259094,339
876.376282,329
876.493347,318
876.610474,326
876.7276,324
876.844727,319
876.961853,308
877.078918,312
877.195984,331
877.313171,321
877.430237,315
877.547302,318
877.664368,320
877.781433,321
877.898499,313
878.015625,322
878.13269,312
878.249695,331
878.366821,323
878.483887,324
878.600952,326
878.717957,310
878.834961,324
878.952087,326
879.069092,322
879.186157,317
879.303162,315
879.420227,321
879.537231,319
879.654236,313
879.77124,318
879.888306,320
880.005249,310
880.122314,321
880.239319,315
880.356323,305
880.473328,311
880.590271,323
880.707275,318
880.824341,305
880.941284,311
881.058228,320
881.175232,311
881.292236,330
881.40918,319
881.526123,312
881.643066,316
881.760071,330
881.877014,314
881.993958,317
882.11084,316
882.227783,325
882.344727,315
882.46167,309
882.578613,321
882.695618,310
882.812439,329
882.929382,314
883.046326,325
883.163208,305
883.280151,315
883.397034,310
883.513916,327
883.630798,311
883.747742,310
883.864563,301
883.981506,330
884.098389,322
884.21521,320
884.332153,328
884.448975,315
884.565796,314
884.682678,320
884.7995,334
884.916443,325
885.033264,326
885.150085,330
885.266968,317
885.383789,323
885.500671,320
885.617493,329
885.734314,320
885.851196,307
885.967896,317
886.084717,325
886.201599,317
886.318359,327
886.435181,319
886.552002,321
886.668762,320
886.785645,324
886.902344,319
887.019165,311
887.135925,320
887.252747,308
887.369446,322
887.486267,306
887.603027,315
887.719788,319
887.836548,330
887.953247,314
888.070068,314
888.186829,303
888.303528,311
888.420288,309
888.536987,324
888.653687,320
888.770447,312
888.887146,323
889.003967,315
889.120667,332
889.237305,316
889.354065,317
889.470703,318
889.587463,320
889.704163,330
889.820862,325
889.937561,314
890.054199,332
890.170837,316
890.287598,335
890.404236,316
890.520874,324
890.637634,316
890.754211,318
890.87085,312
890.987549,309
891.104187,321
891.220886,311
891.337463,307
891.454102,325
891.57074,319
891.687378,320
891.804077,313
891.920654,313
892.037231,316
892.15387,312
892.270447,308
892.387085,337
892.503723,306
892.6203,311
892.736877,325
892.853516,315
892.970032,329
893.08667,316
893.203186,319
893.319763,316
893.43634,318
893.552917,318
893.669556,317
893.786011,323
893.902588,321
894.019165,329
894.135681,320
894.252197,311
894.368835,325
894.485291,315
894.601868,318
894.718384,335
894.8349,315
894.951355,330
895.067932,321
895.184448,324
895.300964,308
895.417419,338
895.533936,312
895.650452,317
895.766907,317
895.883423,312
895.999878,325
896.116333,321
896.232849,319
896.349304,307
896.465759,328
896.582214,317
896.698669,309
896.815125,319
896.931641,326
897.048035,308
897.164551,308
897.280884,331
897.397339,329
897.513794,320
897.630249,317
897.746582,323
897.863098,308
897.979431,323
898.095886,319
898.212341,322
898.328674,312
898.445129,335
898.561462,316
898.677795,326
898.794312,315
898.910645,329
899.026978,326
899.143433,336
899.259766,315
899.37616,317
899.492493,317
899.608765,333
899.725159,320
899.841553,325
899.957947,320
900.07428,309
900.190552,321
900.306946,325
900.423157,320
900.53949,334
900.655884,329
900.772156,324
900.888489,311
901.004822,322
901.121033,299
901.237366,309
901.353699,326
901.46991,309
901.586304,312
901.702515,319
901.818787,314
901.93512,333
902.051331,324
902.167603,325
902.283875,314
902.400085,319
902.516418,305
902.632629,314
902.74884,309
902.865112,329
902.981384,325
903.097595,327
903.213867,308
903.330017,325
903.446289,324
903.5625,313
903.67865,303
903.794922,314
903.911072,313
904.027344,308
904.143494,318
904.259705,327
904.375916,313
904.492065,319
904.608215,309
904.724426,323
904.840576,326
904.956726,325
905.072876,312
905.189087,331
905.305176,308
905.421387,318
905.537537,333
905.653687,309
905.769775,306
905.885925,324
906.002014,327
906.118164,316
906.234314,309
906.350403,319
906.466492,321
906.582642,326
906.69873,315
906.814758,313
906.930908,334
907.046936,332
907.163086,315
907.279175,328
907.395264,319
907.511353,315
907.62738,316
907.743408,325
907.859497,324
907.975525,339
908.091553,323
908.207703,316
908.32373,330
908.439758,322
908.555786,323
908.671814,327
908.787842,320
908.90387,317
909.019775,313
909.135864,314
909.251892,318
909.367859,313
909.483826,318
909.599854,316
909.715881,324
909.831848,317
909.947815,310
910.063782,322
910.179749,321
910.295776,325
910.411743,318
910.527649,333
910.643616,319
910.759583,317
910.875488,321
910.991455,323
911.107361,326
911.223267,327
911.339294,308
911.4552,314
911.571106,327
911.687073,329
911.802979,319
911.918823,318
912.034729,329
912.150635,321
912.266602,304
912.382446,334
912.498352,313
912.614197,308
912.730103,319
912.846008,321
792.44574,310
792.56488,354
792.68396,388
792.80304,375
792.92218,319
793.041199,309
793.160339,309
793.279419,333
793.398499,324
793.517578,311
793.636658,330
793.755737,348
793.874817,348
793.993896,345
794.112976,334
794.232056,314
794.351074,325
794.470215,335
794.589233,344
794.708313,325
794.827393,322
794.946411,341
795.065552,324
795.18457,341
795.303589,322
795.422668,335
795.541687,324
795.660767,339
795.779846,332
795.898865,329
796.017883,329
796.136963,341
796.255981,330
796.375061,329
796.49408,335
796.613037,342
796.732117,326
796.851135,330
796.970154,332
797.089233,332
797.208191,332
797.327271,319
797.446228,343
797.565186,328
797.684265,327
797.803223,339
797.922241,334
798.04126,322
798.160278,324
798.279297,320
798.398315,325
798.517273,323
798.636292,331
798.75531,329
798.874268,322
798.993286,331
799.112244,324
799.231323,316
799.350281,351
799.469238,311
799.588257,324
799.707153,329
799.826111,334
799.945129,315
800.064087,341
800.183044,317
800.302063,331
800.421021,325
800.539978,336
800.658936,324
800.777893,323
800.896912,331
801.015747,320
801.134705,340
801.253723,337
801.37262,334
801.491638,321
801.610535,325
801.729492,315
801.84845,338
801.967407,333
802.086243,326
802.205261,326
802.324158,332
802.443115,325
802.562073,329
802.680969,339
802.799927,336
802.918762,346
803.037659,337
803.156677,326
803.275574,332
803.39447,317
803.513428,329
803.632263,331
803.751221,331
803.870117,328
803.989014,334
804.107971,322
804.226746,323
804.345642,335
804.4646,327
804.583496,331
804.702393,332
804.821228,336
804.940125,324
805.059021,329
805.177917,340
805.296814,323
805.415649,342
805.534546,317
805.653442,323
805.772278,330
805.891113,332
806.01001,334
806.128906,344
806.247742,316
806.366577,329
806.485413,330
806.604309,328
806.723145,330
806.84198,332
806.960876,330
807.079712,331
807.198486,330
807.317383,336
807.436218,319
807.554993,340
807.673889,335
807.792725,345
807.91156,343
808.030396,331
808.14917,341
808.268005,328
808.386841,345
808.505676,331
808.624451,331
808.743286,349
808.862122,329
808.980896,336
809.099731,329
809.218506,344
809.337341,335
809.456116,328
809.57489,317
809.693726,328
809.8125,347
809.931274,336
810.050049,331
810.168884,329
810.287659,321
810.406372,327
810.525269,330
810.643982,331
810.762756,327
810.881531,329
811.000305,328
811.11908,341
811.237854,327
811.356567,334
811.475403,332
811.594116,331
811.71283,333
811.831604,321
811.950378,326
812.069153,339
812.187927,325
812.30658,338
812.425415,327
812.544128,337
812.662781,326
812.781616,333
812.900269,336
813.019043,331
813.137756,336
813.256531,348
813.375244,318
813.493896,335
813.612671,331
813.731384,337
813.850037,328
813.96875,336
814.087524,328
814.206238,333
814.324951,331
814.443604,330
814.562256,336
814.68103,339
814.799683,336
814.918335,350
815.037109,322
815.155762,332
815.274475,335
815.393188,331
815.511841,324
815.630554,334
815.749146,308
815.867859,334
815.986572,320
816.105164,315
816.223877,329
816.342529,331
816.461182,326
816.579895,328
816.698486,314
816.817139,332
816.935791,330
817.054504,338
817.173096,327
817.291748,332
817.4104,338
817.529053,324
817.647644,327
817.766235,323
817.884949,325
818.00354,334
818.122192,323
818.240845,321
818.359436,338
818.478088,336
818.59668,315
818.715271,319
818.833923,320
818.952515,329
819.071106,317
819.189758,313
819.30835,334
819.426941,332
819.545532,333
819.664124,326
819.782715,313
819.901306,321
820.019897,335
820.138489,319
820.25708,312
820.375671,320
820.494202,313
820.612732,313
820.731384,319
820.849915,321
820.968506,314
821.087097,320
821.205627,335
821.324158,324
821.442749,312
821.561279,330
821.679871,316
821.798401,311
821.916931,317
822.035461,309
822.154053,323
822.272583,324
822.391174,314
822.509583,309
822.628174,319
822.746704,327
822.865234,306
822.983765,317
823.102295,329
823.220825,317
823.339294,314
823.457825,333
823.576355,322
823.694824,333
823.813354,309
823.931885,326
824.050354,315
824.168884,324
824.287354,319
824.405823,315
824.524353,320
824.642822,310
824.761353,318
824.879822,316
824.998291,318
825.116699,309
825.235291,313
825.353699,327
825.472168,305
825.590637,319
825.709106,305
825.827576,309
825.946045,318
826.064453,315
826.182983,329
826.301392,328
826.4198,317
826.53833,320
826.656738,312
826.775208,324
826.893677,313
827.012024,325
827.130493,314
827.248962,322
827.36731,306
827.485779,327
827.604248,316
827.722595,318
827.841064,320
827.959412,313
828.077942,316
828.196289,318
828.314636,317
828.433105,326
828.551514,315
828.669861,312
828.78833,318
828.906677,320
829.025085,321
829.143433,301
829.261841,315
829.38031,319
829.498657,306
829.617004,322
829.735413,313
829.85376,326
829.972107,305
830.090515,314
830.208862,322
830.327209,317
830.445557,326
830.563904,316
830.682312,316
830.800659,317
830.919006,314
831.037354,316
831.155701,326
831.274048,324
831.392395,318
831.51062,314
831.629028,323
831.747314,310
831.865662,315
831.984009,315
832.102356,315
832.220642,325
832.338928,317
832.457275,328
832.575623,304
832.693909,313
832.812134,315
832.930481,298
833.048828,311
833.167114,320
833.2854,308
833.403687,327
833.521973,314
833.640259,305
833.758545,314
833.876831,318
833.995056,327
834.113281,311
834.231628,321
834.349915,315
834.468201,314
834.586426,305
834.704651,306
834.822998,316
834.941162,332
835.059448,312
835.177673,311
835.295959,321
835.414246,318
835.53241,332
835.650635,312
835.768921,318
835.887146,312
836.005371,322
836.123596,327
836.241821,307
836.360046,319
836.478271,320
836.596497,304
836.714722,325
836.832886,306
836.95105,308
837.069336,309
837.1875,319
837.305725,324
837.423889,317
837.542053,321
837.660339,322
837.778503,322
837.896667,311
838.014832,318
838.132996,317
838.25116,319
838.369385,320
838.487488,305
838.605713,309
838.723877,313
838.84198,306
838.960205,328
839.078308,322
839.196472,314
839.314636,312
839.4328,314
839.550964,319
839.669067,331
839.787231,305
839.905396,313
840.023499,320
840.141602,316
840.259766,315
840.377869,324
840.495972,324
840.614136,305
840.732239,325
840.850342,321
840.968445,322
841.086548,335
841.204651,302
841.322754,322
841.440918,318
841.55896,319
841.677002,317
841.795166,312
841.913208,309
842.031311,326
842.149353,309
842.267456,318
842.385498,322
842.503601,317
842.621643,310
842.739746,330
842.857788,306
842.97583,318
843.093933,327
843.211975,291
843.330017,308
843.44812,319
843.566101,312
843.684204,322
843.802246,314
843.920227,315
844.038269,302
844.156311,319
844.274292,323
844.392395,306
844.510376,308
844.628357,329
844.74646,319
844.864441,312
844.982422,320
845.100403,300
845.218384,326
845.336426,314
845.454468,324
845.572449,334
845.69043,328
845.808411,315
845.926453,324
846.044373,319
846.162354,315
846.280396,316
846.398315,312
846.516296,310
846.634216,323
846.752197,322
846.870178,306
846.988098,318
847.106079,330
847.22406,315
847.34198,322
847.4599,311
847.577881,322
847.695801,306
847.813782,322
847.931641,316
848.049561,314
848.167603,308
848.285461,314
848.403381,324
848.521362,317
848.639221,296
848.75708,302
848.875,314
848.99292,324
849.110901,304
849.22876,315
849.34668,314
849.464539,302
849.582458,330
849.700317,310
849.818176,312
849.936096,314
850.053955,323
850.171875,317
850.289673,320
850.407593,309
850.525452,313
850.643311,310
850.761169,326
850.878967,318
850.996887,315
851.114746,323
851.232544,320
851.350403,318
851.468262,323
851.58606,314
851.703979,331
851.821777,310
851.939636,313
852.057434,315
852.175232,320
852.293091,317
852.410889,324
852.528687,313
852.646545,311
852.764343,319
852.88208,320
852.999939,323
853.117676,312
853.235535,315
853.353271,316
853.471069,320
853.588928,323
853.706604,317
853.824402,318
853.9422,313
854.059998,320
854.177734,320
854.295532,304
854.413269,320
854.531006,312
854.648804,328
854.766541,316
854.884277,332
855.002014,325
855.119751,310
855.237549,322
855.355225,303
855.473022,317
855.590698,311
855.708435,310
855.826172,316
855.943848,318
856.061646,322
856.179321,323
856.296997,327
856.414795,304
856.53241,316
856.650085,325
856.767822,314
856.885559,307
857.003174,324
857.120911,316
857.238586,324
857.356201,312
857.473938,311
857.591614,316
857.709351,322
857.826965,319
857.944641,319
858.062317,321
858.179993,319
858.297668,311
858.415283,333
858.532959,313
858.650574,321
858.768188,316
858.885803,310
859.003479,313
859.121094,320
859.23877,308
859.356384,322
859.473999,302
859.591675,321
859.709229,308
859.826843,308
859.944458,312
860.062012,294
860.179626,323
860.297302,320
860.414856,300
860.532471,313
860.650024,312
860.767639,317
860.885193,317
861.002808,314
861.120361,321
861.237976,319
861.35553,315
861.473022,314
861.590698,327
861.708191,306
861.825745,306
861.943298,322
862.060852,320
862.178406,314
862.295959,322
862.413513,320
862.531006,311
862.64856,317
862.766113,300
862.883667,324
863.00116,313
863.118713,312
863.236206,310
863.353699,318
863.471252,329
863.588745,324
863.706177,301
863.82373,320
863.941162,305
864.058716,332
864.176208,325
864.29364,326
864.411194,320
864.528687,323
864.646118,314
864.763611,305
864.881042,319
864.998535,319
865.116028,322
865.233459,316
865.350891,302
865.468384,320
865.585754,319
865.703308,314
865.820679,312
865.938171,321
866.055542,309
866.173035,323
866.290466,310
866.407837,319
866.52533,322
866.6427,325
866.760071,325
866.877563,308
866.994934,311
867.112305,322
867.229736,319
867.347107,324
867.464539,314
867.58197,310
867.699341,320
867.81665,307
867.934082,332
868.051453,307
868.168823,329
868.286194,317
868.403564,336
868.520935,310
868.638306,314
868.755676,314
868.872986,323
868.990295,330
869.107727,312
869.225037,309
869.342346,321
869.459717,325
869.577026,322
869.694336,328
869.811707,321
869.929016,325
870.046326,311
870.163635,322
870.280945,319
870.398254,311
870.515564,309
870.632812,313
870.750183,309
870.867432,322
870.984741,302
871.102051,309
871.219299,314
871.336609,312
871.453918,320
871.571106,320
871.688416,321
871.805664,329
871.922852,323
872.040222,326
872.157471,324
872.274719,320
872.391968,312
872.509155,310
872.626465,325
872.743652,310
872.860962,314
872.978149,327
873.095337,329
873.212646,316
873.329834,307
873.44696,316
873.564209,332
873.681396,319
873.798645,336
873.915894,317
874.03302,313
874.150208,320
874.267456,330
874.384583,313
874.501831,314
874.618958,331
874.736145,314
874.853333,317
874.970459,320
875.087646,313
875.204834,311
875.32196,332
875.439148,317
875.556274,321
875.673401,317
875.790527,313
875.907715,312
876.024841,322
876.141968,309
876.259094,313
876.376282,318
876.493347,324
876.610474,319
876.7276,329
876.844727,319
876.961853,317
877.078918,326
877.195984,316
877.313171,311
877.430237,326
877.547302,318
877.664368,320
877.781433,324
877.898499,314
878.015625,310
878.13269,302
878.249695,324
878.366821,326
878.483887,320
878.600952,316
878.717957,321
878.834961,312
878.952087,336
879.069092,330
879.186157,321
879.303162,320
879.420227,311
879.537231,321
879.654236,322
879.77124,308
879.888306,322
880.005249,322
880.122314,326
880.239319,311
880.356323,306
880.473328,323
880.590271,321
880.707275,324
880.824341,299
880.941284,317
881.058228,302
881.175232,313
881.292236,310
881.40918,327
881.526123,314
881.643066,325
881.760071,319
881.877014,321
881.993958,318
882.11084,315
882.227783,325
882.344727,322
882.46167,316
882.578613,333
882.695618,318
882.812439,312
882.929382,314
883.046326,329
883.163208,320
883.280151,308
883.397034,320
883.513916,318
883.630798,316
883.747742,330
883.864563,316
883.981506,319
884.098389,306
884.21521,317
884.332153,314
884.448975,310
884.565796,312
884.682678,320
884.7995,321
884.916443,303
885.033264,323
885.150085,321
885.266968,327
885.383789,319
885.500671,308
885.617493,315
885.734314,326
885.851196,323
885.967896,309
886.084717,322
886.201599,311
886.318359,327
886.435181,320
886.552002,318
886.668762,316
886.785645,331
886.902344,321
887.019165,330
887.135925,318
887.252747,317
887.369446,320
887.486267,319
887.603027,320
887.719788,319
887.836548,308
887.953247,318
888.070068,305
888.186829,305
888.303528,320
888.420288,313
888.536987,307
888.653687,315
888.770447,327
888.887146,325
889.003967,326
889.120667,319
889.237305,317
889.354065,328
889.470703,323
889.587463,325
889.704163,320
889.820862,333
889.937561,318
890.054199,329
890.170837,319
890.287598,326
890.404236,313
890.520874,318
890.637634,321
890.754211,306
890.87085,321
890.987549,324
891.104187,310
891.220886,325
891.337463,328
891.454102,316
891.57074,325
891.687378,317
891.804077,322
891.920654,318
892.037231,333
892.15387,324
892.270447,323
892.387085,318
892.503723,314
892.6203,315
892.736877,327
892.853516,325
892.970032,314
893.08667,318
893.203186,313
893.319763,333
893.43634,322
893.552917,329
893.669556,304
893.786011,328
893.902588,323
894.019165,319
894.135681,318
894.252197,317
894.368835,321
894.485291,324
894.601868,311
894.718384,328
894.8349,318
894.951355,315
895.067932,322
895.184448,317
895.300964,310
895.417419,316
895.533936,324
895.650452,329
895.766907,318
895.883423,311
895.999878,334
896.116333,314
896.232849,322
896.349304,310
896.465759,312
896.582214,320
896.698669,323
896.815125,326
896.931641,330
897.048035,320
897.164551,322
897.280884,314
897.397339,320
897.513794,302
897.630249,312
897.746582,326
897.863098,320
897.979431,313
898.095886,325
898.212341,316
898.328674,331
898.445129,323
898.561462,324
898.677795,325
898.794312,327
898.910645,320
899.026978,316
899.143433,325
899.259766,315
899.37616,321
899.492493,316
899.608765,329
899.725159,326
899.841553,323
899.957947,320
900.07428,319
900.190552,304
900.306946,328
900.423157,317
900.53949,325
900.655884,311
900.772156,322
900.888489,327
901.004822,317
901.121033,312
901.237366,329
901.353699,310
901.46991,326
901.586304,317
901.702515,318
901.818787,319
901.93512,309
902.051331,318
902.167603,304
902.283875,327
902.400085,324
902.516418,318
902.632629,329
902.74884,313
902.865112,322
902.981384,305
903.097595,315
903.213867,324
903.330017,317
903.446289,331
903.5625,317
903.67865,318
903.794922,318
903.911072,328
904.027344,329
904.143494,314
904.259705,320
904.375916,310
904.492065,333
904.608215,308
904.724426,318
904.840576,322
904.956726,336
905.072876,324
905.189087,324
905.305176,326
905.421387,306
905.537537,315
905.653687,311
905.769775,325
905.885925,318
906.002014,317
906.118164,321
906.234314,319
906.350403,322
906.466492,313
906.582642,309
906.69873,321
906.814758,326
906.930908,313
907.046936,328
907.163086,334
907.279175,314
907.395264,315
907.511353,320
907.62738,316
907.743408,320
907.859497,311
907.975525,322
908.091553,318
908.207703,323
908.32373,312
908.439758,327
908.555786,316
908.671814,309
908.787842,317
908.90387,308
909.019775,311
909.135864,327
909.251892,300
909.367859,320
909.483826,323
909.599854,318
909.715881,305
909.831848,331
909.947815,322
910.063782,319
910.179749,314
910.295776,319
910.411743,316
910.527649,318
910.643616,311
910.759583,326
910.875488,307
910.991455,315
911.107361,302
911.223267,319
911.339294,317
911.4552,324
911.571106,319
911.687073,314
911.802979,311
911.918823,331
912.034729,313
912.150635,327
912.266602,307
912.382446,326
912.498352,315
912.614197,304
912.730103,322
912.846008,311
