792.44574,330
792.56488,360
792.68396,400
792.80304,401
792.92218,344
793.041199,339
793.160339,318
793.279419,342
793.398499,354
793.517578,328
793.636658,326
793.755737,349
793.874817,353
793.993896,360
794.112976,342
794.232056,335
794.351074,330
794.470215,335
794.589233,334
794.708313,324
794.827393,334
794.946411,323
795.065552,352
795.18457,353
795.303589,326
795.422668,332
795.541687,345
795.660767,350
795.779846,331
795.898865,334
796.017883,338
796.136963,337
796.255981,345
796.375061,347
796.49408,319
796.613037,332
796.732117,347
796.851135,333
796.970154,328
797.089233,327
797.208191,339
797.327271,328
797.446228,358
797.565186,346
797.684265,333
797.803223,337
797.922241,338
798.04126,327
798.160278,338
798.279297,322
798.398315,330
798.517273,324
798.636292,336
798.75531,329
798.874268,333
798.993286,324
799.112244,333
799.231323,332
799.350281,330
799.469238,335
799.588257,323
799.707153,345
799.826111,342
799.945129,333
800.064087,322
800.183044,312
800.302063,339
800.421021,330
800.539978,325
800.658936,319
800.777893,330
800.896912,340
801.015747,321
801.134705,328
801.253723,321
801.37262,334
801.491638,333
801.610535,331
801.729492,330
801.84845,336
801.967407,325
802.086243,339
802.205261,321
802.324158,334
802.443115,328
802.562073,331
802.680969,316
802.799927,325
802.918762,318
803.037659,336
803.156677,330
803.275574,325
803.39447,321
803.513428,348
803.632263,325
803.751221,330
803.870117,318
803.989014,318
804.107971,335
804.226746,328
804.345642,340
804.4646,341
804.583496,333
804.702393,334
804.821228,330
804.940125,332
805.059021,338
805.177917,310
805.296814,332
805.415649,325
805.534546,340
805.653442,325
805.772278,334
805.891113,315
806.01001,336
806.128906,324
806.247742,338
806.366577,332
806.485413,336
806.604309,332
806.723145,337
806.84198,317
806.960876,330
807.079712,333
807.198486,328
807.317383,321
807.436218,338
807.554993,334
807.673889,336
807.792725,328
807.91156,326
808.030396,319
808.14917,316
808.268005,328
808.386841,315
808.505676,322
808.624451,318
808.743286,309
808.862122,335
808.980896,324
809.099731,321
809.218506,329
809.337341,345
809.456116,333
809.57489,330
809.693726,340
809.8125,335
809.931274,328
810.050049,333
810.168884,321
810.287659,329
810.406372,344
810.525269,327
810.643982,324
810.762756,332
810.881531,333
811.000305,324
811.11908,332
811.237854,334
811.356567,337
811.475403,337
811.594116,337
811.71283,336
811.831604,341
811.950378,330
812.069153,330
812.187927,325
812.30658,328
812.425415,338
812.544128,330
812.662781,307
812.781616,333
812.900269,331
813.019043,325
813.137756,346
813.256531,318
813.375244,328
813.493896,338
813.612671,334
813.731384,337
813.850037,333
813.96875,335
814.087524,340
814.206238,333
814.324951,327
814.443604,321
814.562256,332
814.68103,322
814.799683,334
814.918335,330
815.037109,326
815.155762,323
815.274475,324
815.393188,327
815.511841,319
815.630554,332
815.749146,330
815.867859,327
815.986572,315
816.105164,343
816.223877,340
816.342529,329
816.461182,327
816.579895,337
816.698486,324
816.817139,325
816.935791,315
817.054504,341
817.173096,336
817.291748,317
817.4104,321
817.529053,334
817.647644,342
817.766235,320
817.884949,328
818.00354,318
818.122192,335
818.240845,326
818.359436,332
818.478088,320
818.59668,321
818.715271,322
818.833923,321
818.952515,330
819.071106,319
819.189758,326
819.30835,327
819.426941,317
819.545532,324
819.664124,328
819.782715,305
819.901306,331
820.019897,313
820.138489,317
820.25708,319
820.375671,320
820.494202,329
820.612732,343
820.731384,324
820.849915,312
820.968506,312
821.087097,332
821.205627,329
821.324158,321
821.442749,325
821.561279,317
821.679871,329
821.798401,314
821.916931,323
822.035461,322
822.154053,319
822.272583,318
822.391174,315
822.509583,327
822.628174,317
822.746704,314
822.865234,315
822.983765,312
823.102295,322
823.220825,301
823.339294,331
823.457825,325
823.576355,310
823.694824,331
823.813354,316
823.931885,318
824.050354,323
824.168884,330
824.287354,316
824.405823,318
824.524353,337
824.642822,325
824.761353,313
824.879822,316
824.998291,327
825.116699,319
825.235291,314
825.353699,331
825.472168,337
825.590637,313
825.709106,312
825.827576,326
825.946045,317
826.064453,329
826.182983,321
826.301392,309
826.4198,324
826.53833,314
826.656738,321
826.775208,311
826.893677,307
827.012024,309
827.130493,298
827.248962,322
827.36731,313
827.485779,317
827.604248,333
827.722595,327
827.841064,308
827.959412,319
828.077942,324
828.196289,310
828.314636,317
828.433105,317
828.551514,315
828.669861,318
828.78833,314
828.906677,322
829.025085,323
829.143433,315
829.261841,326
829.38031,322
829.498657,323
829.617004,332
829.735413,313
829.85376,309
829.972107,316
830.090515,312
830.208862,304
830.327209,315
830.445557,323
830.563904,308
830.682312,308
830.800659,326
830.919006,308
831.037354,327
831.155701,317
831.274048,309
831.392395,317
831.51062,322
831.629028,307
831.747314,303
831.865662,327
831.984009,325
832.102356,315
832.220642,322
832.338928,311
832.457275,314
832.575623,327
832.693909,322
832.812134,311
832.930481,312
833.048828,323
833.167114,322
833.2854,319
833.403687,316
833.521973,319
833.640259,309
833.758545,318
833.876831,319
833.995056,326
834.113281,323
834.231628,311
834.349915,332
834.468201,319
834.586426,320
834.704651,321
834.822998,324
834.941162,326
835.059448,307
835.177673,313
835.295959,307
835.414246,319
835.53241,307
835.650635,317
835.768921,304
835.887146,324
836.005371,313
836.123596,330
836.241821,330
836.360046,309
836.478271,317
836.596497,330
836.714722,317
836.832886,322
836.95105,321
837.069336,306
837.1875,304
837.305725,311
837.423889,316
837.542053,310
837.660339,319
837.778503,308
837.896667,323
838.014832,319
838.132996,328
838.25116,318
838.369385,324
838.487488,314
838.605713,317
838.723877,307
838.84198,314
838.960205,319
839.078308,328
839.196472,305
839.314636,329
839.4328,319
839.550964,329
839.669067,324
839.787231,324
839.905396,321
840.023499,331
840.141602,319
840.259766,307
840.377869,320
840.495972,305
840.614136,321
840.732239,327
840.850342,312
840.968445,314
841.086548,310
841.204651,320
841.322754,314
841.440918,318
841.55896,324
841.677002,312
841.795166,313
841.913208,313
842.031311,318
842.149353,328
842.267456,317
842.385498,319
842.503601,297
842.621643,329
842.739746,309
842.857788,299
842.97583,314
843.093933,318
843.211975,316
843.330017,321
843.44812,327
843.566101,313
843.684204,296
843.802246,312
843.920227,314
844.038269,315
844.156311,317
844.274292,325
844.392395,327
844.510376,322
844.628357,311
844.74646,329
844.864441,323
844.982422,326
845.100403,316
845.218384,317
845.336426,318
845.454468,317
845.572449,316
845.69043,324
845.808411,314
845.926453,328
846.044373,312
846.162354,322
846.280396,314
846.398315,321
846.516296,296
846.634216,326
846.752197,327
846.870178,317
846.988098,324
847.106079,310
847.22406,304
847.34198,314
847.4599,324
847.577881,313
847.695801,319
847.813782,324
847.931641,324
848.049561,321
848.167603,311
848.285461,322
848.403381,310
848.521362,316
848.639221,322
848.75708,318
848.875,308
848.99292,327
849.110901,313
849.22876,328
849.34668,326
849.464539,325
849.582458,309
849.700317,318
849.818176,325
849.936096,324
850.053955,318
850.171875,328
850.289673,325
850.407593,325
850.525452,311
850.643311,319
850.761169,324
850.878967,317
850.996887,321
851.114746,329
851.232544,320
851.350403,310
851.468262,331
851.58606,315
851.703979,323
851.821777,330
851.939636,303
852.057434,314
852.175232,314
852.293091,313
852.410889,312
852.528687,329
852.646545,324
852.764343,321
852.88208,317
852.999939,320
853.117676,321
853.235535,309
853.353271,304
853.471069,317
853.588928,326
853.706604,310
853.824402,319
853.9422,329
854.059998,309
854.177734,317
854.295532,323
854.413269,327
854.531006,314
854.648804,327
854.766541,314
854.884277,312
855.002014,324
855.119751,327
855.237549,316
855.355225,330
855.473022,334
855.590698,322
855.708435,307
855.826172,312
855.943848,309
856.061646,314
856.179321,314
856.296997,326
856.414795,319
856.53241,317
856.650085,305
856.767822,332
856.885559,315
857.003174,318
857.120911,328
857.238586,326
857.356201,324
857.473938,319
857.591614,311
857.709351,319
857.826965,331
857.944641,332
858.062317,321
858.179993,313
858.297668,320
858.415283,329
858.532959,319
858.650574,321
858.768188,327
858.885803,316
859.003479,317
859.121094,320
859.23877,324
859.356384,307
859.473999,321
859.591675,326
859.709229,325
859.826843,332
859.944458,315
860.062012,323
860.179626,318
860.297302,321
860.414856,311
860.532471,308
860.650024,309
860.767639,323
860.885193,307
861.002808,334
861.120361,322
861.237976,315
861.35553,319
861.473022,324
861.590698,316
861.708191,331
861.825745,315
861.943298,316
862.060852,302
862.178406,315
862.295959,325
862.413513,309
862.531006,308
862.64856,317
862.766113,309
862.883667,321
863.00116,323
863.118713,328
863.236206,311
863.353699,314
863.471252,321
863.588745,310
863.706177,319
863.82373,319
863.941162,314
864.058716,320
864.176208,313
864.29364,317
864.411194,325
864.528687,316
864.646118,313
864.763611,317
864.881042,307
864.998535,326
865.116028,317
865.233459,302
865.350891,323
865.468384,334
865.585754,316
865.703308,331
865.820679,319
865.938171,329
866.055542,315
866.173035,314
866.290466,315
866.407837,321
866.52533,326
866.6427,329
866.760071,323
866.877563,312
866.994934,312
867.112305,316
867.229736,312
867.347107,315
867.464539,331
867.58197,320
867.699341,313
867.81665,317
867.934082,323
868.051453,325
868.168823,323
868.286194,320
868.403564,332
868.520935,332
868.638306,311
868.755676,317
868.872986,316
868.990295,324
869.107727,331
869.225037,317
869.342346,315
869.459717,323
869.577026,321
869.694336,319
869.811707,308
869.929016,315
870.046326,320
870.163635,315
870.280945,326
870.398254,319
870.515564,309
870.632812,332
870.750183,316
870.867432,324
870.984741,323
871.102051,318
871.219299,329
871.336609,312
871.453918,323
871.571106,330
871.688416,307
871.805664,329
871.922852,305
872.040222,331
872.157471,319
872.274719,321
872.391968,317
872.509155,329
872.626465,327
872.743652,315
872.860962,317
872.978149,322
873.095337,329
873.212646,326
873.329834,333
873.44696,324
873.564209,312
873.681396,323
873.798645,311
873.915894,340
874.03302,307
874.150208,325
874.267456,317
874.384583,324
874.501831,322
874.618958,318
874.736145,325
874.853333,319
874.970459,314
875.087646,317
875.204834,315
875.32196,325
875.439148,319
875.556274,321
875.673401,315
875.790527,319
875.907715,313
876.024841,315
876.141968,308
876.259094,328
876.376282,313
876.493347,321
876.610474,329
876.7276,327
876.844727,319
876.961853,332
877.078918,320
877.195984,321
877.313171,316
877.430237,324
877.547302,303
877.664368,314
877.781433,313
877.898499,322
878.015625,322
878.13269,306
878.249695,326
878.366821,310
878.483887,322
878.600952,308
878.717957,304
878.834961,322
878.952087,328
879.069092,319
879.186157,321
879.303162,299
879.420227,321
879.537231,325
879.654236,325
879.77124,326
879.888306,321
880.005249,320
880.122314,311
880.239319,318
880.356323,312
880.473328,303
880.590271,326
880.707275,330
880.824341,319
880.941284,311
881.058228,318
881.175232,315
881.292236,315
881.40918,318
881.526123,329
881.643066,300
881.760071,311
881.877014,313
881.993958,327
882.11084,319
882.227783,314
882.344727,324
882.46167,309
882.578613,322
882.695618,319
882.812439,322
882.929382,319
883.046326,313
883.163208,315
883.280151,324
883.397034,310
883.513916,325
883.630798,314
883.747742,322
883.864563,321
883.981506,316
884.098389,319
884.21521,327
884.332153,311
884.448975,330
884.565796,310
884.682678,320
884.7995,308
884.916443,337
885.033264,309
885.150085,316
885.266968,322
885.383789,318
885.500671,317
885.617493,327
885.734314,315
885.851196,322
885.967896,326
886.084717,323
886.201599,325
886.318359,326
886.435181,322
886.552002,321
886.668762,315
886.785645,318
886.902344,311
887.019165,327
887.135925,322
887.252747,324
887.369446,324
887.486267,325
887.603027,316
887.719788,309
887.836548,339
887.953247,319
888.070068,310
888.186829,324
888.303528,325
888.420288,321
888.536987,308
888.653687,317
888.770447,337
888.887146,315
889.003967,316
889.120667,329
889.237305,317
889.354065,318
889.470703,318
889.587463,329
889.704163,334
889.820862,322
889.937561,317
890.054199,322
890.170837,318
890.287598,320
890.404236,310
890.520874,320
890.637634,317
890.754211,317
890.87085,318
890.987549,313
891.104187,328
891.220886,321
891.337463,300
891.454102,332
891.57074,313
891.687378,317
891.804077,306
891.920654,331
892.037231,321
892.15387,315
892.270447,323
892.387085,312
892.503723,325
892.6203,330
892.736877,318
892.853516,309
892.970032,318
893.08667,330
893.203186,307
893.319763,316
893.43634,309
893.552917,298
893.669556,311
893.786011,326
893.902588,320
894.019165,322
894.135681,316
894.252197,311
894.368835,320
894.485291,314
894.601868,327
894.718384,324
894.8349,315
894.951355,327
895.067932,318
895.184448,320
895.300964,310
895.417419,312
895.533936,324
895.650452,326
895.766907,317
895.883423,315
895.999878,325
896.116333,315
896.232849,325
896.349304,315
896.465759,316
896.582214,312
896.698669,305
896.815125,309
896.931641,311
897.048035,334
897.164551,319
897.280884,316
897.397339,327
897.513794,307
897.630249,316
897.746582,336
897.863098,320
897.979431,329
898.095886,309
898.212341,322
898.328674,315
898.445129,325
898.561462,321
898.677795,314
898.794312,305
898.910645,310
899.026978,322
899.143433,311
899.259766,318
899.37616,312
899.492493,313
899.608765,315
899.725159,317
899.841553,314
899.957947,317
900.07428,318
900.190552,321
900.306946,315
900.423157,321
900.53949,307
900.655884,318
900.772156,322
900.888489,303
901.004822,322
901.121033,308
901.237366,326
901.353699,311
901.46991,318
901.586304,321
901.702515,308
901.818787,331
901.93512,315
902.051331,313
902.167603,328
902.283875,310
902.400085,329
902.516418,321
902.632629,316
902.74884,320
902.865112,318
902.981384,326
903.097595,311
903.213867,321
903.330017,329
903.446289,319
903.5625,318
903.67865,316
903.794922,320
903.911072,325
904.027344,326
904.143494,310
904.259705,320
904.375916,312
904.492065,334
904.608215,317
904.724426,327
904.840576,319
904.956726,308
905.072876,320
905.189087,328
905.305176,323
905.421387,321
905.537537,321
905.653687,335
905.769775,310
905.885925,325
906.002014,327
906.118164,318
906.234314,323
906.350403,307
906.466492,319
906.582642,316
906.69873,311
906.814758,326
906.930908,301
907.046936,339
907.163086,321
907.279175,320
907.395264,317
907.511353,328
907.62738,318
907.743408,315
907.859497,328
907.975525,332
908.091553,320
908.207703,319
908.32373,309
908.439758,326
908.555786,313
908.671814,309
908.787842,318
908.90387,322
909.019775,312
909.135864,322
909.251892,316
909.367859,330
909.483826,320
909.599854,327
909.715881,318
909.831848,324
909.947815,317
910.063782,312
910.179749,311
910.295776,324
910.411743,334
910.527649,316
910.643616,318
910.759583,319
910.875488,324
910.991455,332
911.107361,318
911.223267,327
911.339294,317
911.4552,317
911.571106,307
911.687073,316
911.802979,324
911.918823,326
912.034729,309
912.150635,318
912.266602,314
912.382446,316
912.498352,313
912.614197,331
912.730103,304
912.846008,319
792.44574,307
792.56488,350
792.68396,434
792.80304,391
792.92218,367
793.041199,330
793.160339,349
793.279419,337
793.398499,353
793.517578,333
793.636658,328
793.755737,348
793.874817,357
793.993896,355
794.112976,335
794.232056,335
794.351074,329
794.470215,345
794.589233,336
794.708313,347
794.827393,328
794.946411,328
795.065552,344
795.18457,343
795.303589,323
795.422668,354
795.541687,323
795.660767,341
795.779846,335
795.898865,328
796.017883,332
796.136963,332
796.255981,338
796.375061,334
796.49408,338
796.613037,332
796.732117,332
796.851135,331
796.970154,342
797.089233,339
797.208191,333
797.327271,322
797.446228,332
797.565186,330
797.684265,333
797.803223,324
797.922241,341
798.04126,342
798.160278,332
798.279297,333
798.398315,339
798.517273,336
798.636292,334
798.75531,339
798.874268,330
798.993286,328
799.112244,342
799.231323,338
799.350281,329
799.469238,326
799.588257,346
799.707153,331
799.826111,336
799.945129,331
800.064087,328
800.183044,340
800.302063,335
800.421021,332
800.539978,328
800.658936,325
800.777893,332
800.896912,334
801.015747,330
801.134705,333
801.253723,325
801.37262,329
801.491638,319
801.610535,337
801.729492,329
801.84845,327
801.967407,326
802.086243,333
802.205261,334
802.324158,338
802.443115,327
802.562073,322
802.680969,326
802.799927,334
802.918762,334
803.037659,309
803.156677,322
803.275574,332
803.39447,332
803.513428,337
803.632263,323
803.751221,340
803.870117,322
803.989014,334
804.107971,335
804.226746,330
804.345642,324
804.4646,331
804.583496,319
804.702393,335
804.821228,327
804.940125,324
805.059021,329
805.177917,329
805.296814,325
805.415649,330
805.534546,321
805.653442,331
805.772278,325
805.891113,334
806.01001,329
806.128906,326
806.247742,333
806.366577,331
806.485413,324
806.604309,326
806.723145,336
806.84198,332
806.960876,332
807.079712,344
807.198486,331
807.317383,334
807.436218,335
807.554993,347
807.673889,332
807.792725,318
807.91156,338
808.030396,331
808.14917,330
808.268005,341
808.386841,323
808.505676,325
808.624451,324
808.743286,329
808.862122,338
808.980896,330
809.099731,331
809.218506,336
809.337341,334
809.456116,341
809.57489,322
809.693726,330
809.8125,325
809.931274,351
810.050049,336
810.168884,300
810.287659,335
810.406372,335
810.525269,327
810.643982,331
810.762756,336
810.881531,332
811.000305,331
811.11908,331
811.237854,335
811.356567,320
811.475403,326
811.594116,322
811.71283,335
811.831604,325
811.950378,334
812.069153,329
812.187927,322
812.30658,333
812.425415,326
812.544128,324
812.662781,328
812.781616,330
812.900269,334
813.019043,337
813.137756,325
813.256531,325
813.375244,333
813.493896,327
813.612671,324
813.731384,328
813.850037,322
813.96875,336
814.087524,329
814.206238,348
814.324951,326
814.443604,319
814.562256,320
814.68103,322
814.799683,330
814.918335,335
815.037109,325
815.155762,329
815.274475,333
815.393188,336
815.511841,333
815.630554,322
815.749146,324
815.867859,329
815.986572,325
816.105164,334
816.223877,322
816.342529,306
816.461182,323
816.579895,325
816.698486,322
816.817139,337
816.935791,328
817.054504,324
817.173096,328
817.291748,323
817.4104,325
817.529053,319
817.647644,313
817.766235,321
817.884949,334
818.00354,333
818.122192,318
818.240845,320
818.359436,320
818.478088,321
818.59668,322
818.715271,322
818.833923,329
818.952515,318
819.071106,329
819.189758,318
819.30835,318
819.426941,321
819.545532,322
819.664124,331
819.782715,322
819.901306,335
820.019897,308
820.138489,321
820.25708,314
820.375671,331
820.494202,330
820.612732,327
820.731384,307
820.849915,324
820.968506,311
821.087097,309
821.205627,319
821.324158,316
821.442749,312
821.561279,333
821.679871,308
821.798401,341
821.916931,324
822.035461,304
822.154053,311
822.272583,325
822.391174,324
822.509583,333
822.628174,322
822.746704,321
822.865234,321
822.983765,313
823.102295,328
823.220825,339
823.339294,319
823.457825,313
823.576355,311
823.694824,330
823.813354,311
823.931885,313
824.050354,322
824.168884,324
824.287354,320
824.405823,327
824.524353,317
824.642822,332
824.761353,307
824.879822,320
824.998291,324
825.116699,326
825.235291,323
825.353699,325
825.472168,322
825.590637,318
825.709106,323
825.827576,320
825.946045,315
826.064453,329
826.182983,325
826.301392,332
826.4198,327
826.53833,321
826.656738,318
826.775208,317
826.893677,321
827.012024,304
827.130493,326
827.248962,323
827.36731,321
827.485779,311
827.604248,314
827.722595,320
827.841064,306
827.959412,324
828.077942,320
828.196289,300
828.314636,314
828.433105,319
828.551514,303
828.669861,312
828.78833,329
828.906677,319
829.025085,312
829.143433,328
829.261841,320
829.38031,327
829.498657,322
829.617004,318
829.735413,310
829.85376,316
829.972107,317
830.090515,313
830.208862,315
830.327209,317
830.445557,326
830.563904,330
830.682312,312
830.800659,323
830.919006,323
831.037354,327
831.155701,329
831.274048,331
831.392395,315
831.51062,317
831.629028,319
831.747314,316
831.865662,310
831.984009,313
832.102356,312
832.220642,315
832.338928,307
832.457275,322
832.575623,312
832.693909,319
832.812134,327
832.930481,311
833.048828,307
833.167114,319
833.2854,310
833.403687,317
833.521973,317
833.640259,333
833.758545,319
833.876831,311
833.995056,307
834.113281,315
834.231628,317
834.349915,317
834.468201,326
834.586426,320
834.704651,302
834.822998,336
834.941162,315
835.059448,324
835.177673,319
835.295959,317
835.414246,312
835.53241,322
835.650635,334
835.768921,325
835.887146,298
836.005371,323
836.123596,319
836.241821,315
836.360046,329
836.478271,320
836.596497,324
836.714722,323
836.832886,309
836.95105,324
837.069336,319
837.1875,319
837.305725,313
837.423889,319
837.542053,314
837.660339,322
837.778503,319
837.896667,309
838.014832,320
838.132996,327
838.25116,320
838.369385,328
838.487488,319
838.605713,331
838.723877,317
838.84198,315
838.960205,338
839.078308,315
839.196472,313
839.314636,323
839.4328,317
839.550964,327
839.669067,315
839.787231,312
839.905396,317
840.023499,336
840.141602,317
840.259766,313
840.377869,324
840.495972,319
840.614136,320
840.732239,310
840.850342,321
840.968445,326
841.086548,315
841.204651,319
841.322754,327
841.440918,331
841.55896,308
841.677002,328
841.795166,321
841.913208,327
842.031311,322
842.149353,324
842.267456,309
842.385498,321
842.503601,316
842.621643,327
842.739746,313
842.857788,318
842.97583,322
843.093933,327
843.211975,319
843.330017,328
843.44812,325
843.566101,326
843.684204,331
843.802246,313
843.920227,317
844.038269,318
844.156311,314
844.274292,309
844.392395,326
844.510376,316
844.628357,330
844.74646,308
844.864441,319
844.982422,333
845.100403,324
845.218384,313
845.336426,315
845.454468,324
845.572449,321
845.69043,322
845.808411,317
845.926453,336
846.044373,330
846.162354,328
846.280396,311
846.398315,315
846.516296,313
846.634216,316
846.752197,308
846.870178,311
846.988098,317
847.106079,322
847.22406,316
847.34198,315
847.4599,327
847.577881,323
847.695801,320
847.813782,335
847.931641,323
848.049561,323
848.167603,305
848.285461,312
848.403381,306
848.521362,325
848.639221,311
848.75708,320
848.875,314
848.99292,314
849.110901,319
849.22876,318
849.34668,309
849.464539,332
849.582458,321
849.700317,311
849.818176,303
849.936096,318
850.053955,320
850.171875,328
850.289673,316
850.407593,308
850.525452,323
850.643311,333
850.761169,318
850.878967,325
850.996887,319
851.114746,307
851.232544,323
851.350403,315
851.468262,329
851.58606,320
851.703979,333
851.821777,314
851.939636,305
852.057434,318
852.175232,314
852.293091,329
852.410889,321
852.528687,321
852.646545,312
852.764343,318
852.88208,319
852.999939,321
853.117676,326
853.235535,320
853.353271,321
853.471069,318
853.588928,321
853.706604,325
853.824402,314
853.9422,324
854.059998,311
854.177734,323
854.295532,310
854.413269,326
854.531006,312
854.648804,334
854.766541,321
854.884277,321
855.002014,322
855.119751,321
855.237549,314
855.355225,324
855.473022,318
855.590698,328
855.708435,318
855.826172,321
855.943848,308
856.061646,331
856.179321,334
856.296997,319
856.414795,311
856.53241,301
856.650085,329
856.767822,331
856.885559,320
857.003174,333
857.120911,315
857.238586,323
857.356201,320
857.473938,318
857.591614,321
857.709351,315
857.826965,320
857.944641,312
858.062317,331
858.179993,317
858.297668,326
858.415283,311
858.532959,312
858.650574,307
858.768188,317
858.885803,314
859.003479,316
859.121094,334
859.23877,314
859.356384,325
859.473999,311
859.591675,326
859.709229,306
859.826843,318
859.944458,318
860.062012,322
860.179626,312
860.297302,342
860.414856,310
860.532471,333
860.650024,313
860.767639,333
860.885193,319
861.002808,320
861.120361,319
861.237976,327
861.35553,321
861.473022,314
861.590698,319
861.708191,321
861.825745,320
861.943298,318
862.060852,310
862.178406,328
862.295959,309
862.413513,319
862.531006,318
862.64856,329
862.766113,323
862.883667,312
863.00116,320
863.118713,321
863.236206,323
863.353699,303
863.471252,314
863.588745,317
863.706177,323
863.82373,329
863.941162,325
864.058716,321
864.176208,325
864.29364,317
864.411194,331
864.528687,327
864.646118,316
864.763611,326
864.881042,320
864.998535,301
865.116028,311
865.233459,316
865.350891,319
865.468384,324
865.585754,320
865.703308,327
865.820679,301
865.938171,330
866.055542,306
866.173035,326
866.290466,318
866.407837,307
866.52533,308
866.6427,328
866.760071,322
866.877563,323
866.994934,333
867.112305,308
867.229736,313
867.347107,317
867.464539,312
867.58197,325
867.699341,316
867.81665,326
867.934082,311
868.051453,313
868.168823,313
868.286194,325
868.403564,321
868.520935,327
868.638306,318
868.755676,323
868.872986,312
868.990295,307
869.107727,326
869.225037,324
869.342346,322
869.459717,326
869.577026,324
869.694336,321
869.811707,314
869.929016,312
870.046326,316
870.163635,311
870.280945,307
870.398254,325
870.515564,312
870.632812,323
870.750183,318
870.867432,308
870.984741,316
871.102051,317
871.219299,318
871.336609,326
871.453918,316
871.571106,321
871.688416,327
871.805664,315
871.922852,328
872.040222,314
872.157471,316
872.274719,310
872.391968,322
872.509155,325
872.626465,323
872.743652,328
872.860962,314
872.978149,330
873.095337,318
873.212646,328
873.329834,306
873.44696,334
873.564209,318
873.681396,321
873.798645,310
873.915894,318
874.03302,330
874.150208,327
874.267456,314
874.384583,340
874.501831,319
874.618958,319
874.736145,306
874.853333,315
874.970459,321
875.087646,338
875.204834,328
875.32196,317
875.439148,317
875.556274,321
875.673401,305
875.790527,323
875.907715,325
876.024841,322
876.141968,316
876.259094,312
876.376282,322
876.493347,315
876.610474,315
876.7276,330
876.844727,316
876.961853,330
877.078918,311
877.195984,316
877.313171,314
877.430237,324
877.547302,320
877.664368,324
877.781433,334
877.898499,326
878.015625,325
878.13269,332
878.249695,310
878.366821,339
878.483887,316
878.600952,303
878.717957,311
878.834961,320
878.952087,329
879.069092,327
879.186157,309
879.303162,323
879.420227,323
879.537231,319
879.654236,315
879.77124,325
879.888306,317
880.005249,312
880.122314,319
880.239319,323
880.356323,317
880.473328,306
880.590271,324
880.707275,301
880.824341,322
880.941284,313
881.058228,314
881.175232,325
881.292236,324
881.40918,326
881.526123,321
881.643066,329
881.760071,318
881.877014,327
881.993958,297
882.11084,315
882.227783,306
882.344727,320
882.46167,321
882.578613,323
882.695618,310
882.812439,317
882.929382,316
883.046326,309
883.163208,314
883.280151,312
883.397034,311
883.513916,322
883.630798,320
883.747742,331
883.864563,323
883.981506,321
884.098389,309
884.21521,322
884.332153,327
884.448975,316
884.565796,320
884.682678,316
884.7995,328
884.916443,331
885.033264,301
885.150085,328
885.266968,321
885.383789,330
885.500671,318
885.617493,312
885.734314,332
885.851196,314
885.967896,331
886.084717,326
886.201599,322
886.318359,324
886.435181,314
886.552002,328
886.668762,319
886.785645,322
886.902344,323
887.019165,322
887.135925,332
887.252747,326
887.369446,314
887.486267,334
887.603027,327
887.719788,321
887.836548,330
887.953247,332
888.070068,326
888.186829,316
888.303528,322
888.420288,315
888.536987,332
888.653687,326
888.770447,316
888.887146,315
889.003967,304
889.120667,318
889.237305,315
889.354065,327
889.470703,315
889.587463,324
889.704163,318
889.820862,323
889.937561,322
890.054199,310
890.170837,321
890.287598,318
890.404236,325
890.520874,319
890.637634,322
890.754211,324
890.87085,302
890.987549,318
891.104187,322
891.220886,308
891.337463,335
891.454102,339
891.57074,323
891.687378,312
891.804077,316
891.920654,319
892.037231,316
892.15387,316
892.270447,314
892.387085,327
892.503723,314
892.6203,326
892.736877,325
892.853516,324
892.970032,301
893.08667,312
893.203186,318
893.319763,318
893.43634,308
893.552917,306
893.669556,318
893.786011,322
893.902588,324
894.019165,325
894.135681,321
894.252197,319
894.368835,309
894.485291,314
894.601868,325
894.718384,326
894.8349,316
894.951355,324
895.067932,307
895.184448,313
895.300964,316
895.417419,315
895.533936,322
895.650452,333
895.766907,329
895.883423,320
895.999878,316
896.116333,325
896.232849,323
896.349304,319
896.465759,326
896.582214,319
896.698669,321
896.815125,337
896.931641,316
897.048035,325
897.164551,323
897.280884,316
897.397339,328
897.513794,328
897.630249,326
897.746582,313
897.863098,318
897.979431,314
898.095886,315
898.212341,315
898.328674,326
898.445129,320
898.561462,322
898.677795,321
898.794312,316
898.910645,320
899.026978,313
899.143433,312
899.259766,308
899.37616,327
899.492493,317
899.608765,322
899.725159,306
899.841553,324
899.957947,316
900.07428,320
900.190552,326
900.306946,309
900.423157,326
900.53949,326
900.655884,328
900.772156,308
900.888489,319
901.004822,320
901.121033,315
901.237366,327
901.353699,307
901.46991,319
901.586304,313
901.702515,338
901.818787,324
901.93512,314
902.051331,319
902.167603,329
902.283875,318
902.400085,320
902.516418,312
902.632629,321
902.74884,324
902.865112,339
902.981384,308
903.097595,327
903.213867,320
903.330017,323
903.446289,319
903.5625,328
903.67865,317
903.794922,331
903.911072,316
904.027344,333
904.143494,309
904.259705,302
904.375916,318
904.492065,320
904.608215,313
904.724426,321
904.840576,317
904.956726,323
905.072876,313
905.189087,321
905.305176,311
905.421387,316
905.537537,320
905.653687,320
905.769775,323
905.885925,321
906.002014,315
906.118164,312
906.234314,322
906.350403,318
906.466492,317
906.582642,323
906.69873,306
906.814758,312
906.930908,316
907.046936,323
907.163086,314
907.279175,322
907.395264,325
907.511353,323
907.62738,319
907.743408,321
907.859497,330
907.975525,303
908.091553,312
908.207703,323
908.32373,320
908.439758,324
908.555786,320
908.671814,326
908.787842,323
908.90387,318
909.019775,308
909.135864,310
909.251892,329
909.367859,316
909.483826,306
909.599854,328
909.715881,318
909.831848,321
909.947815,309
910.063782,315
910.179749,330
910.295776,313
910.411743,324
910.527649,332
910.643616,304
910.759583,309
910.875488,331
910.991455,319
911.107361,324
911.223267,325
911.339294,331
911.4552,322
911.571106,324
911.687073,313
911.802979,309
911.918823,334
912.034729,326
912.150635,328
912.266602,314
912.382446,310
912.498352,305
912.614197,315
912.730103,324
912.846008,320
792.44574,323
792.56488,367
792.68396,420
792.80304,387
792.92218,359
793.041199,321
793.160339,344
793.279419,360
793.398499,353
793.517578,322
793.636658,344
793.755737,350
793.874817,368
793.993896,346
794.112976,329
794.232056,331
794.351074,330
794.470215,339
794.589233,329
794.708313,337
794.827393,326
794.946411,334
795.065552,355
795.18457,349
795.303589,354
795.422668,331
795.541687,316
795.660767,328
795.779846,340
795.898865,326
796.017883,340
796.136963,335
796.255981,336
796.375061,322
796.49408,336
796.613037,347
796.732117,344
796.851135,339
796.970154,330
797.089233,346
797.208191,331
797.327271,323
797.446228,345
797.565186,328
797.684265,332
797.803223,344
797.922241,334
798.04126,346
798.160278,334
798.279297,319
798.398315,332
798.517273,321
798.636292,333
798.75531,333
798.874268,329
798.993286,328
799.112244,320
799.231323,324
799.350281,335
799.469238,330
799.588257,330
799.707153,327
799.826111,324
799.945129,336
800.064087,326
800.183044,328
800.302063,335
800.421021,333
800.539978,330
800.658936,337
800.777893,332
800.896912,328
801.015747,332
801.134705,344
801.253723,325
801.37262,340
801.491638,319
801.610535,317
801.729492,344
801.84845,329
801.967407,335
802.086243,340
802.205261,332
802.324158,315
802.443115,338
802.562073,319
802.680969,329
802.799927,326
802.918762,329
803.037659,325
803.156677,334
803.275574,318
803.39447,332
803.513428,324
803.632263,330
803.751221,326
803.870117,337
803.989014,338
804.107971,335
804.226746,330
804.345642,335
804.4646,332
804.583496,329
804.702393,337
804.821228,326
804.940125,331
805.059021,336
805.177917,329
805.296814,308
805.415649,342
805.534546,332
805.653442,317
805.772278,335
805.891113,321
806.01001,337
806.128906,338
806.247742,329
806.366577,333
806.485413,329
806.604309,332
806.723145,323
806.84198,335
806.960876,335
807.079712,324
807.198486,326
807.317383,343
807.436218,323
807.554993,319
807.673889,342
807.792725,330
807.91156,319
808.030396,318
808.14917,335
808.268005,339
808.386841,324
808.505676,332
808.624451,315
808.743286,334
808.862122,322
808.980896,336
809.099731,334
809.218506,325
809.337341,323
809.456116,330
809.57489,323
809.693726,328
809.8125,325
809.931274,337
810.050049,325
810.168884,323
810.287659,335
810.406372,326
810.525269,329
810.643982,336
810.762756,331
810.881531,333
811.000305,332
811.11908,338
811.237854,342
811.356567,335
811.475403,321
811.594116,340
811.71283,332
811.831604,324
811.950378,316
812.069153,337
812.187927,336
812.30658,331
812.425415,333
812.544128,338
812.662781,335
812.781616,321
812.900269,329
813.019043,334
813.137756,332
813.256531,331
813.375244,338
813.493896,332
813.612671,335
813.731384,332
813.850037,331
813.96875,335
814.087524,335
814.206238,318
814.324951,335
814.443604,334
814.562256,319
814.68103,329
814.799683,319
814.918335,344
815.037109,330
815.155762,314
815.274475,324
815.393188,329
815.511841,322
815.630554,334
815.749146,339
815.867859,335
815.986572,330
816.105164,323
816.223877,332
816.342529,327
816.461182,331
816.579895,332
816.698486,324
816.817139,327
816.935791,329
817.054504,324
817.173096,336
817.291748,326
817.4104,336
817.529053,330
817.647644,311
817.766235,314
817.884949,324
818.00354,317
818.122192,316
818.240845,310
818.359436,316
818.478088,328
818.59668,327
818.715271,332
818.833923,319
818.952515,327
819.071106,334
819.189758,317
819.30835,328
819.426941,331
819.545532,323
819.664124,321
819.782715,334
819.901306,331
820.019897,319
820.138489,329
820.25708,322
820.375671,319
820.494202,322
820.612732,324
820.731384,319
820.849915,325
820.968506,314
821.087097,319
821.205627,329
821.324158,321
821.442749,330
821.561279,321
821.679871,304
821.798401,319
821.916931,319
822.035461,307
822.154053,315
822.272583,308
822.391174,308
822.509583,323
822.628174,324
822.746704,320
822.865234,321
822.983765,325
823.102295,320
823.220825,319
823.339294,313
823.457825,314
823.576355,326
823.694824,338
823.813354,325
823.931885,317
824.050354,320
824.168884,318
824.287354,306
824.405823,326
824.524353,332
824.642822,318
824.761353,324
824.879822,325
824.998291,329
825.116699,337
825.235291,319
825.353699,331
825.472168,332
825.590637,314
825.709106,315
825.827576,307
825.946045,311
826.064453,318
826.182983,313
826.301392,322
826.4198,307
826.53833,318
826.656738,327
826.775208,326
826.893677,318
827.012024,330
827.130493,315
827.248962,317
827.36731,321
827.485779,320
827.604248,318
827.722595,312
827.841064,322
827.959412,327
828.077942,317
828.196289,309
828.314636,329
828.433105,319
828.551514,318
828.669861,327
828.78833,318
828.906677,325
829.025085,321
829.143433,316
829.261841,302
829.38031,327
829.498657,323
829.617004,310
829.735413,326
829.85376,322
829.972107,312
830.090515,336
830.208862,319
830.327209,332
830.445557,316
830.563904,318
830.682312,317
830.800659,322
830.919006,319
831.037354,320
831.155701,303
831.274048,305
831.392395,317
831.51062,322
831.629028,321
831.747314,308
831.865662,313
831.984009,303
832.102356,317
832.220642,314
832.338928,322
832.457275,321
832.575623,323
832.693909,317
832.812134,318
832.930481,324
833.048828,314
833.167114,320
833.2854,323
833.403687,325
833.521973,318
833.640259,338
833.758545,313
833.876831,324
833.995056,301
834.113281,314
834.231628,322
834.349915,317
834.468201,321
834.586426,309
834.704651,322
834.822998,308
834.941162,317
835.059448,322
835.177673,322
835.295959,329
835.414246,319
835.53241,322
835.650635,306
835.768921,319
835.887146,311
836.005371,320
836.123596,318
836.241821,314
836.360046,323
836.478271,328
836.596497,314
836.714722,326
836.832886,316
836.95105,306
837.069336,326
837.1875,335
837.305725,322
837.423889,309
837.542053,321
837.660339,315
837.778503,314
837.896667,324
838.014832,309
838.132996,324
838.25116,319
838.369385,340
838.487488,324
838.605713,331
838.723877,310
838.84198,319
838.960205,301
839.078308,311
839.196472,330
839.314636,324
839.4328,323
839.550964,328
839.669067,328
839.787231,328
839.905396,306
840.023499,320
840.141602,309
840.259766,323
840.377869,338
840.495972,319
840.614136,329
840.732239,336
840.850342,316
840.968445,320
841.086548,322
841.204651,312
841.322754,323
841.440918,319
841.55896,323
841.677002,319
841.795166,314
841.913208,306
842.031311,321
842.149353,328
842.267456,318
842.385498,328
842.503601,317
842.621643,318
842.739746,317
842.857788,318
842.97583,321
843.093933,325
843.211975,315
843.330017,325
843.44812,316
843.566101,311
843.684204,317
843.802246,319
843.920227,323
844.038269,339
844.156311,320
844.274292,330
844.392395,322
844.510376,326
844.628357,313
844.74646,320
844.864441,319
844.982422,316
845.100403,316
845.218384,308
845.336426,311
845.454468,318
845.572449,325
845.69043,331
845.808411,322
845.926453,318
846.044373,326
846.162354,328
846.280396,312
846.398315,323
846.516296,325
846.634216,312
846.752197,318
846.870178,319
846.988098,321
847.106079,320
847.22406,316
847.34198,314
847.4599,322
847.577881,316
847.695801,308
847.813782,321
847.931641,316
848.049561,322
848.167603,318
848.285461,314
848.403381,306
848.521362,323
848.639221,325
848.75708,320
848.875,317
848.99292,306
849.110901,320
849.22876,326
849.34668,318
849.464539,316
849.582458,327
849.700317,328
849.818176,314
849.936096,320
850.053955,317
850.171875,313
850.289673,306
850.407593,309
850.525452,320
850.643311,311
850.761169,315
850.878967,307
850.996887,327
851.114746,316
851.232544,316
851.350403,325
851.468262,326
851.58606,326
851.703979,315
851.821777,323
851.939636,330
852.057434,319
852.175232,322
852.293091,319
852.410889,313
852.528687,317
852.646545,318
852.764343,319
852.88208,318
852.999939,320
853.117676,325
853.235535,318
853.353271,320
853.471069,306
853.588928,331
853.706604,339
853.824402,324
853.9422,329
854.059998,309
854.177734,314
854.295532,310
854.413269,316
854.531006,312
854.648804,312
854.766541,329
854.884277,316
855.002014,319
855.119751,317
855.237549,307
855.355225,322
855.473022,324
855.590698,305
855.708435,321
855.826172,316
855.943848,319
856.061646,325
856.179321,317
856.296997,326
856.414795,323
856.53241,315
856.650085,317
856.767822,315
856.885559,319
857.003174,300
857.120911,318
857.238586,319
857.356201,320
857.473938,318
857.591614,315
857.709351,319
857.826965,323
857.944641,309
858.062317,323
858.179993,326
858.297668,311
858.415283,325
858.532959,308
858.650574,323
858.768188,325
858.885803,322
859.003479,323
859.121094,307
859.23877,315
859.356384,319
859.473999,314
859.591675,322
859.709229,313
859.826843,332
859.944458,314
860.062012,319
860.179626,325
860.297302,303
860.414856,304
860.532471,319
860.650024,323
860.767639,338
860.885193,304
861.002808,313
861.120361,304
861.237976,326
861.35553,309
861.473022,326
861.590698,317
861.708191,324
861.825745,295
861.943298,325
862.060852,316
862.178406,320
862.295959,323
862.413513,308
862.531006,309
862.64856,324
862.766113,318
862.883667,314
863.00116,319
863.118713,326
863.236206,321
863.353699,313
863.471252,315
863.588745,317
863.706177,329
863.82373,314
863.941162,312
864.058716,322
864.176208,318
864.29364,333
864.411194,320
864.528687,337
864.646118,328
864.763611,322
864.881042,315
864.998535,321
865.116028,330
865.233459,318
865.350891,320
865.468384,313
865.585754,318
865.703308,325
865.820679,318
865.938171,313
866.055542,313
866.173035,326
866.290466,322
866.407837,319
866.52533,318
866.6427,314
866.760071,314
866.877563,317
866.994934,316
867.112305,324
867.229736,303
867.347107,311
867.464539,326
867.58197,325
867.699341,315
867.81665,320
867.934082,315
868.051453,317
868.168823,322
868.286194,314
868.403564,328
868.520935,313
868.638306,319
868.755676,323
868.872986,307
868.990295,322
869.107727,316
869.225037,316
869.342346,313
869.459717,329
869.577026,316
869.694336,319
869.811707,314
869.929016,326
870.046326,310
870.163635,317
870.280945,324
870.398254,313
870.515564,324
870.632812,317
870.750183,318
870.867432,312
870.984741,317
871.102051,331
871.219299,320
871.336609,318
871.453918,326
871.571106,322
871.688416,312
871.805664,312
871.922852,318
872.040222,327
872.157471,322
872.274719,323
872.391968,313
872.509155,329
872.626465,320
872.743652,316
872.860962,329
872.978149,316
873.095337,331
873.212646,331
873.329834,314
873.44696,331
873.564209,312
873.681396,337
873.798645,321
873.915894,332
874.03302,325
874.150208,326
874.267456,319
874.384583,308
874.501831,323
874.618958,326
874.736145,316
874.853333,324
874.970459,318
875.087646,325
875.204834,330
875.32196,326
875.439148,310
875.556274,321
875.673401,319
875.790527,320
875.907715,328
876.024841,326
876.141968,329
876.259094,327
876.376282,312
876.493347,325
876.610474,318
876.7276,328
876.844727,326
876.961853,320
877.078918,317
877.195984,320
877.313171,311
877.430237,319
877.547302,316
877.664368,323
877.781433,329
877.898499,321
878.015625,331
878.13269,332
878.249695,325
878.366821,321
878.483887,315
878.600952,318
878.717957,319
878.834961,315
878.952087,310
879.069092,331
879.186157,323
879.303162,307
879.420227,317
879.537231,320
879.654236,315
879.77124,314
879.888306,317
880.005249,325
880.122314,316
880.239319,318
880.356323,323
880.473328,328
880.590271,324
880.707275,312
880.824341,328
880.941284,317
881.058228,319
881.175232,311
881.292236,335
881.40918,315
881.526123,313
881.643066,331
881.760071,317
881.877014,328
881.993958,318
882.11084,325
882.227783,328
882.344727,323
882.46167,310
882.578613,321
882.695618,325
882.812439,329
882.929382,317
883.046326,322
883.163208,321
883.280151,328
883.397034,322
883.513916,318
883.630798,314
883.747742,318
883.864563,311
883.981506,328
884.098389,326
884.21521,320
884.332153,317
884.448975,318
884.565796,332
884.682678,319
884.7995,324
884.916443,319
885.033264,341
885.150085,327
885.266968,326
885.383789,324
885.500671,308
885.617493,331
885.734314,324
885.851196,302
885.967896,313
886.084717,324
886.201599,320
886.318359,331
886.435181,327
886.552002,314
886.668762,322
886.785645,326
886.902344,327
887.019165,329
887.135925,318
887.252747,333
887.369446,326
887.486267,323
887.603027,324
887.719788,322
887.836548,318
887.953247,325
888.070068,318
888.186829,319
888.303528,318
888.420288,318
888.536987,318
888.653687,312
888.770447,323
888.887146,321
889.003967,320
889.120667,308
889.237305,324
889.354065,319
889.470703,318
889.587463,320
889.704163,313
889.820862,317
889.937561,328
890.054199,322
890.170837,322
890.287598,320
890.404236,316
890.520874,330
890.637634,310
890.754211,308
890.87085,330
890.987549,326
891.104187,310
891.220886,316
891.337463,317
891.454102,318
891.57074,328
891.687378,324
891.804077,313
891.920654,322
892.037231,315
892.15387,317
892.270447,323
892.387085,318
892.503723,321
892.6203,319
892.736877,303
892.853516,319
892.970032,319
893.08667,321
893.203186,312
893.319763,326
893.43634,331
893.552917,313
893.669556,309
893.786011,324
893.902588,304
894.019165,326
894.135681,320
894.252197,321
894.368835,330
894.485291,320
894.601868,314
894.718384,322
894.8349,312
894.951355,312
895.067932,312
895.184448,301
895.300964,312
895.417419,321
895.533936,337
895.650452,316
895.766907,312
895.883423,319
895.999878,323
896.116333,323
896.232849,327
896.349304,321
896.465759,313
896.582214,301
896.698669,320
896.815125,317
896.931641,317
897.048035,320
897.164551,325
897.280884,311
897.397339,308
897.513794,321
897.630249,316
897.746582,321
897.863098,330
897.979431,314
898.095886,315
898.212341,313
898.328674,317
898.445129,322
898.561462,317
898.677795,318
898.794312,326
898.910645,315
899.026978,324
899.143433,322
899.259766,305
899.37616,324
899.492493,318
899.608765,341
899.725159,309
899.841553,325
899.957947,316
900.07428,315
900.190552,310
900.306946,312
900.423157,320
900.53949,321
900.655884,316
900.772156,310
900.888489,320
901.004822,325
901.121033,327
901.237366,317
901.353699,313
901.46991,333
901.586304,320
901.702515,315
901.818787,312
901.93512,328
902.051331,311
902.167603,323
902.283875,329
902.400085,314
902.516418,319
902.632629,325
902.74884,314
902.865112,328
902.981384,324
903.097595,326
903.213867,315
903.330017,322
903.446289,322
903.5625,313
903.67865,327
903.794922,321
903.911072,313
904.027344,314
904.143494,326
904.259705,314
904.375916,325
904.492065,325
904.608215,326
904.724426,312
904.840576,307
904.956726,329
905.072876,325
905.189087,321
905.305176,313
905.421387,318
905.537537,320
905.653687,323
905.769775,318
905.885925,327
906.002014,325
906.118164,314
906.234314,315
906.350403,311
906.466492,312
906.582642,333
906.69873,326
906.814758,309
906.930908,325
907.046936,311
907.163086,310
907.279175,327
907.395264,304
907.511353,314
907.62738,306
907.743408,328
907.859497,313
907.975525,319
908.091553,316
908.207703,332
908.32373,316
908.439758,316
908.555786,312
908.671814,317
908.787842,329
908.90387,330
909.019775,313
909.135864,327
909.251892,307
909.367859,309
909.483826,320
909.599854,328
909.715881,304
909.831848,309
909.947815,325
910.063782,324
910.179749,311
910.295776,325
910.411743,328
910.527649,315
910.643616,320
910.759583,325
910.875488,314
910.991455,327
911.107361,312
911.223267,315
911.339294,306
911.4552,311
911.571106,314
911.687073,320
911.802979,303
911.918823,315
912.034729,314
912.150635,321
912.266602,318
912.382446,313
912.498352,317
912.614197,312
912.730103,313
912.846008,330
