792.44574,331
792.56488,367
792.68396,403
792.80304,407
792.92218,349
793.041199,333
793.160339,340
793.279419,349
793.398499,334
793.517578,328
793.636658,331
793.755737,339
793.874817,357
793.993896,349
794.112976,364
794.232056,340
794.351074,344
794.470215,349
794.589233,334
794.708313,339
794.827393,331
794.946411,364
795.065552,337
795.18457,350
795.303589,350
795.422668,324
795.541687,335
795.660767,333
795.779846,344
795.898865,335
796.017883,325
796.136963,328
796.255981,329
796.375061,335
796.49408,337
796.613037,333
796.732117,340
796.851135,336
796.970154,323
797.089233,334
797.208191,330
797.327271,327
797.446228,331
797.565186,332
797.684265,306
797.803223,331
797.922241,319
798.04126,337
798.160278,327
798.279297,331
798.398315,327
798.517273,328
798.636292,327
798.75531,329
798.874268,338
798.993286,328
799.112244,325
799.231323,333
799.350281,325
799.469238,320
799.588257,330
799.707153,323
799.826111,340
799.945129,337
800.064087,328
800.183044,334
800.302063,327
800.421021,327
800.539978,320
800.658936,321
800.777893,335
800.896912,330
801.015747,323
801.134705,326
801.253723,327
801.37262,332
801.491638,318
801.610535,333
801.729492,312
801.84845,332
801.967407,327
802.086243,332
802.205261,326
802.324158,313
802.443115,328
802.562073,327
802.680969,335
802.799927,322
802.918762,322
803.037659,318
803.156677,326
803.275574,326
803.39447,322
803.513428,328
803.632263,324
803.751221,326
803.870117,328
803.989014,307
804.107971,326
804.226746,328
804.345642,325
804.4646,333
804.583496,318
804.702393,338
804.821228,329
804.940125,327
805.059021,319
805.177917,330
805.296814,326
805.415649,325
805.534546,313
805.653442,321
805.772278,307
805.891113,320
806.01001,338
806.128906,313
806.247742,331
806.366577,327
806.485413,323
806.604309,333
806.723145,318
806.84198,341
806.960876,317
807.079712,319
807.198486,322
807.317383,323
807.436218,310
807.554993,324
807.673889,318
807.792725,327
807.91156,324
808.030396,334
808.14917,310
808.268005,332
808.386841,316
808.505676,325
808.624451,325
808.743286,319
808.862122,317
808.980896,338
809.099731,320
809.218506,327
809.337341,328
809.456116,329
809.57489,320
809.693726,313
809.8125,341
809.931274,314
810.050049,331
810.168884,317
810.287659,338
810.406372,316
810.525269,325
810.643982,324
810.762756,320
810.881531,330
811.000305,326
811.11908,317
811.237854,318
811.356567,335
811.475403,321
811.594116,320
811.71283,312
811.831604,315
811.950378,329
812.069153,320
812.187927,328
812.30658,332
812.425415,320
812.544128,338
812.662781,314
812.781616,324
812.900269,326
813.019043,319
813.137756,322
813.256531,325
813.375244,316
813.493896,330
813.612671,324
813.731384,326
813.850037,320
813.96875,325
814.087524,314
814.206238,332
814.324951,327
814.443604,334
814.562256,319
814.68103,322
814.799683,330
814.918335,312
815.037109,320
815.155762,338
815.274475,327
815.393188,328
815.511841,325
815.630554,329
815.749146,316
815.867859,317
815.986572,319
816.105164,319
816.223877,329
816.342529,317
816.461182,317
816.579895,315
816.698486,314
816.817139,347
816.935791,335
817.054504,319
817.173096,339
817.291748,311
817.4104,324
817.529053,325
817.647644,317
817.766235,323
817.884949,326
818.00354,314
818.122192,324
818.240845,317
818.359436,331
818.478088,334
818.59668,315
818.715271,324
818.833923,329
818.952515,332
819.071106,328
819.189758,323
819.30835,321
819.426941,328
819.545532,325
819.664124,336
819.782715,322
819.901306,328
820.019897,329
820.138489,323
820.25708,321
820.375671,318
820.494202,321
820.612732,308
820.731384,319
820.849915,336
820.968506,303
821.087097,313
821.205627,321
821.324158,331
821.442749,318
821.561279,322
821.679871,330
821.798401,318
821.916931,324
822.035461,311
822.154053,323
822.272583,317
822.391174,335
822.509583,317
822.628174,317
822.746704,321
822.865234,324
822.983765,318
823.102295,311
823.220825,314
823.339294,332
823.457825,307
823.576355,317
823.694824,326
823.813354,322
823.931885,313
824.050354,321
824.168884,328
824.287354,328
824.405823,336
824.524353,313
824.642822,328
824.761353,315
824.879822,324
824.998291,316
825.116699,329
825.235291,303
825.353699,332
825.472168,329
825.590637,328
825.709106,306
825.827576,311
825.946045,312
826.064453,329
826.182983,336
826.301392,311
826.4198,318
826.53833,318
826.656738,329
826.775208,334
826.893677,309
827.012024,323
827.130493,317
827.248962,321
827.36731,328
827.485779,333
827.604248,314
827.722595,335
827.841064,315
827.959412,312
828.077942,314
828.196289,314
828.314636,316
828.433105,324
828.551514,300
828.669861,316
828.78833,312
828.906677,327
829.025085,317
829.143433,314
829.261841,315
829.38031,323
829.498657,330
829.617004,321
829.735413,328
829.85376,323
829.972107,327
830.090515,321
830.208862,321
830.327209,329
830.445557,307
830.563904,313
830.682312,310
830.800659,328
830.919006,317
831.037354,314
831.155701,311
831.274048,318
831.392395,320
831.51062,322
831.629028,311
831.747314,332
831.865662,322
831.984009,324
832.102356,317
832.220642,320
832.338928,308
832.457275,307
832.575623,318
832.693909,319
832.812134,323
832.930481,323
833.048828,304
833.167114,317
833.2854,306
833.403687,303
833.521973,308
833.640259,315
833.758545,311
833.876831,321
833.995056,325
834.113281,316
834.231628,326
834.349915,318
834.468201,316
834.586426,319
834.704651,297
834.822998,322
834.941162,320
835.059448,316
835.177673,330
835.295959,313
835.414246,327
835.53241,327
835.650635,323
835.768921,324
835.887146,313
836.005371,314
836.123596,319
836.241821,344
836.360046,332
836.478271,330
836.596497,308
836.714722,325
836.832886,315
836.95105,310
837.069336,327
837.1875,318
837.305725,323
837.423889,314
837.542053,314
837.660339,311
837.778503,311
837.896667,317
838.014832,315
838.132996,323
838.25116,321
838.369385,323
838.487488,322
838.605713,328
838.723877,307
838.84198,323
838.960205,309
839.078308,315
839.196472,327
839.314636,318
839.4328,319
839.550964,320
839.669067,316
839.787231,321
839.905396,308
840.023499,315
840.141602,313
840.259766,331
840.377869,321
840.495972,317
840.614136,307
840.732239,327
840.850342,322
840.968445,333
841.086548,309
841.204651,312
841.322754,317
841.440918,318
841.55896,326
841.677002,317
841.795166,324
841.913208,327
842.031311,336
842.149353,328
842.267456,322
842.385498,330
842.503601,317
842.621643,320
842.739746,317
842.857788,323
842.97583,334
843.093933,314
843.211975,318
843.330017,318
843.44812,329
843.566101,328
843.684204,311
843.802246,330
843.920227,326
844.038269,334
844.156311,327
844.274292,323
844.392395,314
844.510376,323
844.628357,307
844.74646,313
844.864441,331
844.982422,324
845.100403,316
845.218384,316
845.336426,309
845.454468,330
845.572449,312
845.69043,317
845.808411,312
845.926453,332
846.044373,325
846.162354,324
846.280396,323
846.398315,330
846.516296,308
846.634216,322
846.752197,320
846.870178,309
846.988098,318
847.106079,316
847.22406,311
847.34198,322
847.4599,328
847.577881,315
847.695801,324
847.813782,316
847.931641,321
848.049561,321
848.167603,311
848.285461,332
848.403381,321
848.521362,311
848.639221,326
848.75708,326
848.875,327
848.99292,330
849.110901,318
849.22876,316
849.34668,336
849.464539,321
849.582458,325
849.700317,321
849.818176,321
849.936096,322
850.053955,326
850.171875,321
850.289673,326
850.407593,310
850.525452,314
850.643311,316
850.761169,324
850.878967,324
850.996887,318
851.114746,323
851.232544,316
851.350403,335
851.468262,318
851.58606,321
851.703979,311
851.821777,325
851.939636,313
852.057434,323
852.175232,323
852.293091,331
852.410889,326
852.528687,324
852.646545,320
852.764343,323
852.88208,329
852.999939,323
853.117676,325
853.235535,322
853.353271,311
853.471069,310
853.588928,325
853.706604,328
853.824402,324
853.9422,328
854.059998,319
854.177734,310
854.295532,322
854.413269,319
854.531006,316
854.648804,314
854.766541,324
854.884277,323
855.002014,330
855.119751,320
855.237549,329
855.355225,332
855.473022,337
855.590698,332
855.708435,321
855.826172,326
855.943848,322
856.061646,312
856.179321,323
856.296997,317
856.414795,303
856.53241,320
856.650085,320
856.767822,324
856.885559,310
857.003174,323
857.120911,334
857.238586,325
857.356201,320
857.473938,314
857.591614,313
857.709351,306
857.826965,323
857.944641,307
858.062317,312
858.179993,312
858.297668,335
858.415283,332
858.532959,329
858.650574,325
858.768188,306
858.885803,318
859.003479,315
859.121094,319
859.23877,324
859.356384,312
859.473999,322
859.591675,322
859.709229,325
859.826843,327
859.944458,319
860.062012,317
860.179626,329
860.297302,320
860.414856,317
860.532471,317
860.650024,316
860.767639,322
860.885193,308
861.002808,325
861.120361,311
861.237976,319
861.35553,317
861.473022,341
861.590698,312
861.708191,333
861.825745,306
861.943298,321
862.060852,324
862.178406,328
862.295959,309
862.413513,327
862.531006,310
862.64856,323
862.766113,311
862.883667,321
863.00116,319
863.118713,310
863.236206,329
863.353699,323
863.471252,316
863.588745,315
863.706177,329
863.82373,325
863.941162,329
864.058716,326
864.176208,320
864.29364,318
864.411194,323
864.528687,317
864.646118,313
864.763611,305
864.881042,319
864.998535,321
865.116028,323
865.233459,309
865.350891,314
865.468384,318
865.585754,313
865.703308,312
865.820679,323
865.938171,307
866.055542,308
866.173035,326
866.290466,311
866.407837,314
866.52533,324
866.6427,331
866.760071,319
866.877563,316
866.994934,318
867.112305,326
867.229736,319
867.347107,311
867.464539,319
867.58197,316
867.699341,318
867.81665,317
867.934082,309
868.051453,321
868.168823,317
868.286194,319
868.403564,319
868.520935,324
868.638306,325
868.755676,310
868.872986,312
868.990295,326
869.107727,328
869.225037,316
869.342346,327
869.459717,318
869.577026,312
869.694336,328
869.811707,313
869.929016,331
870.046326,300
870.163635,325
870.280945,308
870.398254,318
870.515564,312
870.632812,326
870.750183,321
870.867432,321
870.984741,317
871.102051,326
871.219299,326
871.336609,306
871.453918,322
871.571106,330
871.688416,325
871.805664,324
871.922852,317
872.040222,330
872.157471,306
872.274719,310
872.391968,329
872.509155,334
872.626465,324
872.743652,334
872.860962,309
872.978149,335
873.095337,323
873.212646,319
873.329834,325
873.44696,312
873.564209,319
873.681396,324
873.798645,325
873.915894,332
874.03302,316
874.150208,318
874.267456,310
874.384583,324
874.501831,316
874.618958,330
874.736145,323
874.853333,322
874.970459,317
875.087646,328
875.204834,307
875.32196,321
875.439148,319
875.556274,325
875.673401,323
875.790527,329
875.907715,318
876.024841,313
876.141968,320
876.259094,309
876.376282,315
876.493347,324
876.610474,309
876.7276,325
876.844727,319
876.961853,326
877.078918,329
877.195984,313
877.313171,327
877.430237,329
877.547302,326
877.664368,334
877.781433,315
877.898499,328
878.015625,306
878.13269,327
878.249695,317
878.366821,320
878.483887,304
878.600952,315
878.717957,330
878.834961,316
878.952087,315
879.069092,325
879.186157,318
879.303162,309
879.420227,312
879.537231,323
879.654236,320
879.77124,314
879.888306,306
880.005249,323
880.122314,311
880.239319,326
880.356323,313
880.473328,319
880.590271,320
880.707275,314
880.824341,330
880.941284,313
881.058228,315
881.175232,310
881.292236,308
881.40918,327
881.526123,320
881.643066,319
881.760071,314
881.877014,321
881.993958,316
882.11084,329
882.227783,317
882.344727,335
882.46167,322
882.578613,317
882.695618,311
882.812439,326
882.929382,318
883.046326,317
883.163208,312
883.280151,322
883.397034,306
883.513916,312
883.630798,326
883.747742,336
883.864563,324
883.981506,315
884.098389,326
884.21521,321
884.332153,324
884.448975,330
884.565796,334
884.682678,334
884.7995,334
884.916443,329
885.033264,337
885.150085,326
885.266968,318
885.383789,320
885.500671,324
885.617493,326
885.734314,316
885.851196,335
885.967896,326
886.084717,324
886.201599,339
886.318359,317
886.435181,329
886.552002,323
886.668762,332
886.785645,314
886.902344,328
887.019165,328
887.135925,319
887.252747,324
887.369446,318
887.486267,325
887.603027,324
887.719788,312
887.836548,321
887.953247,325
888.070068,320
888.186829,329
888.303528,323
888.420288,324
888.536987,312
888.653687,303
888.770447,315
888.887146,323
889.003967,308
889.120667,315
889.237305,301
889.354065,337
889.470703,313
889.587463,320
889.704163,316
889.820862,323
889.937561,317
890.054199,322
890.170837,318
890.287598,313
890.404236,314
890.520874,331
890.637634,307
890.754211,332
890.87085,320
890.987549,303
891.104187,309
891.220886,319
891.337463,312
891.454102,316
891.57074,314
891.687378,306
891.804077,310
891.920654,323
892.037231,311
892.15387,320
892.270447,321
892.387085,324
892.503723,328
892.6203,317
892.736877,320
892.853516,310
892.970032,312
893.08667,325
893.203186,312
893.319763,321
893.43634,327
893.552917,311
893.669556,321
893.786011,319
893.902588,318
894.019165,324
894.135681,313
894.252197,323
894.368835,327
894.485291,309
894.601868,323
894.718384,317
894.8349,321
894.951355,325
895.067932,320
895.184448,338
895.300964,320
895.417419,322
895.533936,312
895.650452,315
895.766907,322
895.883423,326
895.999878,323
896.116333,319
896.232849,319
896.349304,320
896.465759,307
896.582214,324
896.698669,318
896.815125,332
896.931641,317
897.048035,303
897.164551,313
897.280884,313
897.397339,317
897.513794,326
897.630249,312
897.746582,319
897.863098,330
897.979431,317
898.095886,306
898.212341,321
898.328674,314
898.445129,319
898.561462,304
898.677795,323
898.794312,322
898.910645,314
899.026978,320
899.143433,317
899.259766,319
899.37616,301
899.492493,328
899.608765,313
899.725159,315
899.841553,318
899.957947,322
900.07428,324
900.190552,308
900.306946,309
900.423157,320
900.53949,325
900.655884,330
900.772156,325
900.888489,315
901.004822,333
901.121033,314
901.237366,326
901.353699,313
901.46991,319
901.586304,336
901.702515,327
901.818787,314
901.93512,327
902.051331,310
902.167603,331
902.283875,312
902.400085,327
902.516418,324
902.632629,336
902.74884,312
902.865112,326
902.981384,321
903.097595,318
903.213867,315
903.330017,315
903.446289,308
903.5625,335
903.67865,315
903.794922,311
903.911072,333
904.027344,319
904.143494,336
904.259705,313
904.375916,313
904.492065,320
904.608215,325
904.724426,329
904.840576,324
904.956726,315
905.072876,314
905.189087,312
905.305176,313
905.421387,311
905.537537,311
905.653687,325
905.769775,325
905.885925,331
906.002014,317
906.118164,327
906.234314,313
906.350403,315
906.466492,320
906.582642,316
906.69873,313
906.814758,314
906.930908,316
907.046936,330
907.163086,318
907.279175,325
907.395264,324
907.511353,314
907.62738,325
907.743408,322
907.859497,316
907.975525,322
908.091553,317
908.207703,311
908.32373,316
908.439758,311
908.555786,315
908.671814,322
908.787842,327
908.90387,342
909.019775,319
909.135864,312
909.251892,312
909.367859,320
909.483826,311
909.599854,302
909.715881,306
909.831848,320
909.947815,322
910.063782,313
910.179749,315
910.295776,312
910.411743,320
910.527649,319
910.643616,319
910.759583,320
910.875488,315
910.991455,316
911.107361,332
911.223267,329
911.339294,310
911.4552,327
911.571106,309
911.687073,310
911.802979,314
911.918823,309
912.034729,322
912.150635,312
912.266602,319
912.382446,302
912.498352,315
912.614197,322
912.730103,310
912.846008,314
792.44574,323
792.56488,365
792.68396,412
792.80304,393
792.92218,339
793.041199,345
793.160339,348
793.279419,347
793.398499,345
793.517578,347
793.636658,332
793.755737,349
793.874817,356
793.993896,348
794.112976,334
794.232056,339
794.351074,331
794.470215,331
794.589233,344
794.708313,330
794.827393,341
794.946411,329
795.065552,337
795.18457,343
795.303589,337
795.422668,348
795.541687,340
795.660767,338
795.779846,341
795.898865,328
796.017883,326
796.136963,329
796.255981,337
796.375061,317
796.49408,332
796.613037,334
796.732117,331
796.851135,328
796.970154,339
797.089233,327
797.208191,334
797.327271,333
797.446228,331
797.565186,324
797.684265,323
797.803223,327
797.922241,342
798.04126,335
798.160278,336
798.279297,333
798.398315,326
798.517273,324
798.636292,330
798.75531,333
798.874268,325
798.993286,331
799.112244,310
799.231323,336
799.350281,312
799.469238,339
799.588257,332
799.707153,322
799.826111,327
799.945129,325
800.064087,330
800.183044,320
800.302063,316
800.421021,330
800.539978,331
800.658936,323
800.777893,317
800.896912,325
801.015747,330
801.134705,334
801.253723,341
801.37262,340
801.491638,310
801.610535,332
801.729492,324
801.84845,323
801.967407,332
802.086243,316
802.205261,344
802.324158,317
802.443115,331
802.562073,330
802.680969,323
802.799927,316
802.918762,328
803.037659,309
803.156677,328
803.275574,311
803.39447,327
803.513428,328
803.632263,323
803.751221,327
803.870117,323
803.989014,320
804.107971,312
804.226746,312
804.345642,332
804.4646,321
804.583496,328
804.702393,316
804.821228,339
804.940125,323
805.059021,322
805.177917,322
805.296814,331
805.415649,324
805.534546,323
805.653442,337
805.772278,321
805.891113,328
806.01001,324
806.128906,334
806.247742,325
806.366577,332
806.485413,326
806.604309,323
806.723145,316
806.84198,325
806.960876,328
807.079712,330
807.198486,317
807.317383,323
807.436218,322
807.554993,324
807.673889,320
807.792725,323
807.91156,322
808.030396,337
808.14917,325
808.268005,329
808.386841,330
808.505676,320
808.624451,320
808.743286,322
808.862122,318
808.980896,328
809.099731,331
809.218506,316
809.337341,347
809.456116,319
809.57489,328
809.693726,337
809.8125,321
809.931274,327
810.050049,318
810.168884,327
810.287659,329
810.406372,311
810.525269,321
810.643982,330
810.762756,331
810.881531,321
811.000305,322
811.11908,328
811.237854,327
811.356567,319
811.475403,333
811.594116,332
811.71283,325
811.831604,325
811.950378,336
812.069153,329
812.187927,324
812.30658,335
812.425415,319
812.544128,329
812.662781,320
812.781616,342
812.900269,324
813.019043,319
813.137756,316
813.256531,331
813.375244,320
813.493896,327
813.612671,323
813.731384,309
813.850037,313
813.96875,313
814.087524,322
814.206238,328
814.324951,316
814.443604,328
814.562256,314
814.68103,335
814.799683,334
814.918335,331
815.037109,317
815.155762,313
815.274475,317
815.393188,321
815.511841,319
815.630554,299
815.749146,323
815.867859,321
815.986572,316
816.105164,337
816.223877,313
816.342529,329
816.461182,325
816.579895,331
816.698486,317
816.817139,329
816.935791,315
817.054504,323
817.173096,326
817.291748,314
817.4104,321
817.529053,326
817.647644,313
817.766235,327
817.884949,316
818.00354,316
818.122192,320
818.240845,325
818.359436,326
818.478088,314
818.59668,315
818.715271,330
818.833923,309
818.952515,318
819.071106,332
819.189758,318
819.30835,333
819.426941,328
819.545532,322
819.664124,324
819.782715,329
819.901306,312
820.019897,316
820.138489,317
820.25708,320
820.375671,320
820.494202,318
820.612732,327
820.731384,316
820.849915,321
820.968506,336
821.087097,317
821.205627,329
821.324158,311
821.442749,322
821.561279,319
821.679871,340
821.798401,333
821.916931,312
822.035461,337
822.154053,326
822.272583,316
822.391174,312
822.509583,320
822.628174,312
822.746704,325
822.865234,310
822.983765,311
823.102295,316
823.220825,313
823.339294,333
823.457825,327
823.576355,308
823.694824,315
823.813354,318
823.931885,319
824.050354,306
824.168884,318
824.287354,312
824.405823,316
824.524353,315
824.642822,324
824.761353,318
824.879822,321
824.998291,312
825.116699,317
825.235291,320
825.353699,316
825.472168,321
825.590637,324
825.709106,318
825.827576,322
825.946045,320
826.064453,309
826.182983,312
826.301392,312
826.4198,315
826.53833,317
826.656738,318
826.775208,314
826.893677,311
827.012024,321
827.130493,322
827.248962,326
827.36731,324
827.485779,319
827.604248,318
827.722595,324
827.841064,320
827.959412,330
828.077942,314
828.196289,323
828.314636,329
828.433105,313
828.551514,315
828.669861,310
828.78833,328
828.906677,317
829.025085,311
829.143433,319
829.261841,321
829.38031,326
829.498657,318
829.617004,324
829.735413,313
829.85376,313
829.972107,317
830.090515,321
830.208862,318
830.327209,323
830.445557,322
830.563904,314
830.682312,326
830.800659,314
830.919006,317
831.037354,327
831.155701,321
831.274048,317
831.392395,328
831.51062,321
831.629028,325
831.747314,319
831.865662,325
831.984009,306
832.102356,332
832.220642,315
832.338928,324
832.457275,316
832.575623,327
832.693909,323
832.812134,323
832.930481,326
833.048828,330
833.167114,322
833.2854,317
833.403687,303
833.521973,302
833.640259,321
833.758545,329
833.876831,305
833.995056,304
834.113281,316
834.231628,317
834.349915,312
834.468201,323
834.586426,308
834.704651,307
834.822998,319
834.941162,317
835.059448,326
835.177673,322
835.295959,321
835.414246,320
835.53241,325
835.650635,320
835.768921,327
835.887146,328
836.005371,316
836.123596,306
836.241821,320
836.360046,317
836.478271,328
836.596497,320
836.714722,329
836.832886,321
836.95105,313
837.069336,312
837.1875,318
837.305725,312
837.423889,323
837.542053,326
837.660339,322
837.778503,316
837.896667,313
838.014832,304
838.132996,321
838.25116,313
838.369385,314
838.487488,331
838.605713,310
838.723877,324
838.84198,321
838.960205,314
839.078308,330
839.196472,327
839.314636,316
839.4328,314
839.550964,319
839.669067,314
839.787231,312
839.905396,324
840.023499,302
840.141602,319
840.259766,324
840.377869,320
840.495972,325
840.614136,335
840.732239,320
840.850342,302
840.968445,328
841.086548,317
841.204651,328
841.322754,311
841.440918,324
841.55896,305
841.677002,324
841.795166,332
841.913208,330
842.031311,317
842.149353,313
842.267456,318
842.385498,326
842.503601,334
842.621643,335
842.739746,306
842.857788,312
842.97583,311
843.093933,328
843.211975,322
843.330017,324
843.44812,306
843.566101,335
843.684204,326
843.802246,314
843.920227,323
844.038269,323
844.156311,312
844.274292,334
844.392395,320
844.510376,309
844.628357,325
844.74646,314
844.864441,326
844.982422,316
845.100403,314
845.218384,329
845.336426,314
845.454468,312
845.572449,305
845.69043,316
845.808411,327
845.926453,317
846.044373,329
846.162354,317
846.280396,331
846.398315,306
846.516296,326
846.634216,326
846.752197,314
846.870178,319
846.988098,325
847.106079,327
847.22406,320
847.34198,312
847.4599,319
847.577881,324
847.695801,325
847.813782,332
847.931641,320
848.049561,301
848.167603,322
848.285461,320
848.403381,306
848.521362,330
848.639221,321
848.75708,318
848.875,321
848.99292,316
849.110901,304
849.22876,327
849.34668,308
849.464539,328
849.582458,324
849.700317,332
849.818176,317
849.936096,313
850.053955,322
850.171875,319
850.289673,324
850.407593,317
850.525452,304
850.643311,325
850.761169,318
850.878967,328
850.996887,304
851.114746,318
851.232544,325
851.350403,328
851.468262,311
851.58606,329
851.703979,317
851.821777,325
851.939636,320
852.057434,326
852.175232,320
852.293091,335
852.410889,321
852.528687,322
852.646545,320
852.764343,325
852.88208,318
852.999939,318
853.117676,323
853.235535,320
853.353271,318
853.471069,313
853.588928,311
853.706604,320
853.824402,301
853.9422,318
854.059998,310
854.177734,325
854.295532,324
854.413269,319
854.531006,324
854.648804,329
854.766541,329
854.884277,326
855.002014,312
855.119751,319
855.237549,330
855.355225,332
855.473022,325
855.590698,303
855.708435,309
855.826172,316
855.943848,308
856.061646,332
856.179321,314
856.296997,317
856.414795,322
856.53241,311
856.650085,319
856.767822,326
856.885559,313
857.003174,328
857.120911,318
857.238586,332
857.356201,314
857.473938,303
857.591614,316
857.709351,316
857.826965,318
857.944641,322
858.062317,318
858.179993,329
858.297668,309
858.415283,321
858.532959,329
858.650574,323
858.768188,320
858.885803,321
859.003479,321
859.121094,319
859.23877,321
859.356384,327
859.473999,320
859.591675,328
859.709229,306
859.826843,312
859.944458,328
860.062012,312
860.179626,331
860.297302,312
860.414856,323
860.532471,320
860.650024,336
860.767639,316
860.885193,318
861.002808,315
861.120361,326
861.237976,317
861.35553,322
861.473022,320
861.590698,315
861.708191,312
861.825745,329
861.943298,327
862.060852,331
862.178406,330
862.295959,322
862.413513,327
862.531006,327
862.64856,325
862.766113,300
862.883667,330
863.00116,318
863.118713,309
863.236206,313
863.353699,330
863.471252,323
863.588745,318
863.706177,319
863.82373,319
863.941162,305
864.058716,322
864.176208,309
864.29364,328
864.411194,313
864.528687,326
864.646118,324
864.763611,321
864.881042,314
864.998535,320
865.116028,307
865.233459,324
865.350891,311
865.468384,313
865.585754,313
865.703308,316
865.820679,306
865.938171,316
866.055542,323
866.173035,321
866.290466,316
866.407837,305
866.52533,315
866.6427,323
866.760071,316
866.877563,343
866.994934,316
867.112305,322
867.229736,331
867.347107,317
867.464539,310
867.58197,319
867.699341,314
867.81665,316
867.934082,317
868.051453,322
868.168823,311
868.286194,308
868.403564,310
868.520935,327
868.638306,306
868.755676,302
868.872986,308
868.990295,320
869.107727,326
869.225037,323
869.342346,318
869.459717,319
869.577026,324
869.694336,319
869.811707,311
869.929016,322
870.046326,314
870.163635,333
870.280945,314
870.398254,324
870.515564,312
870.632812,330
870.750183,313
870.867432,335
870.984741,317
871.102051,326
871.219299,327
871.336609,322
871.453918,321
871.571106,309
871.688416,338
871.805664,313
871.922852,326
872.040222,318
872.157471,310
872.274719,322
872.391968,325
872.509155,329
872.626465,323
872.743652,319
872.860962,319
872.978149,320
873.095337,319
873.212646,330
873.329834,323
873.44696,315
873.564209,312
873.681396,330
873.798645,332
873.915894,309
874.03302,323
874.150208,317
874.267456,317
874.384583,313
874.501831,319
874.618958,306
874.736145,317
874.853333,325
874.970459,317
875.087646,326
875.204834,308
875.32196,323
875.439148,321
875.556274,318
875.673401,326
875.790527,319
875.907715,322
876.024841,324
876.141968,334
876.259094,315
876.376282,317
876.493347,322
876.610474,339
876.7276,313
876.844727,319
876.961853,324
877.078918,312
877.195984,327
877.313171,317
877.430237,320
877.547302,315
877.664368,320
877.781433,325
877.898499,317
878.015625,309
878.13269,317
878.249695,328
878.366821,318
878.483887,312
878.600952,333
878.717957,326
878.834961,314
878.952087,313
879.069092,328
879.186157,320
879.303162,319
879.420227,318
879.537231,317
879.654236,304
879.77124,328
879.888306,308
880.005249,326
880.122314,321
880.239319,320
880.356323,305
880.473328,311
880.590271,313
880.707275,321
880.824341,334
880.941284,326
881.058228,326
881.175232,315
881.292236,316
881.40918,328
881.526123,316
881.643066,320
881.760071,319
881.877014,314
881.993958,320
882.11084,313
882.227783,318
882.344727,321
882.46167,323
882.578613,317
882.695618,316
882.812439,326
882.929382,332
883.046326,317
883.163208,322
883.280151,327
883.397034,321
883.513916,311
883.630798,319
883.747742,316
883.864563,313
883.981506,319
884.098389,327
884.21521,327
884.332153,315
884.448975,312
884.565796,315
884.682678,306
884.7995,320
884.916443,333
885.033264,326
885.150085,316
885.266968,330
885.383789,336
885.500671,307
885.617493,323
885.734314,329
885.851196,323
885.967896,323
886.084717,319
886.201599,317
886.318359,335
886.435181,326
886.552002,350
886.668762,321
886.785645,322
886.902344,327
887.019165,325
887.135925,327
887.252747,334
887.369446,322
887.486267,319
887.603027,320
887.719788,333
887.836548,319
887.953247,318
888.070068,329
888.186829,317
888.303528,323
888.420288,316
888.536987,319
888.653687,326
888.770447,334
888.887146,319
889.003967,316
889.120667,327
889.237305,305
889.354065,321
889.470703,324
889.587463,318
889.704163,310
889.820862,319
889.937561,310
890.054199,320
890.170837,305
890.287598,319
890.404236,306
890.520874,320
890.637634,320
890.754211,316
890.87085,313
890.987549,310
891.104187,319
891.220886,334
891.337463,327
891.454102,323
891.57074,319
891.687378,320
891.804077,315
891.920654,326
892.037231,317
892.15387,322
892.270447,307
892.387085,324
892.503723,315
892.6203,306
892.736877,317
892.853516,317
892.970032,317
893.08667,321
893.203186,310
893.319763,327
893.43634,306
893.552917,329
893.669556,307
893.786011,315
893.902588,306
894.019165,319
894.135681,320
894.252197,316
894.368835,319
894.485291,314
894.601868,329
894.718384,316
894.8349,315
894.951355,318
895.067932,321
895.184448,317
895.300964,305
895.417419,314
895.533936,322
895.650452,316
895.766907,310
895.883423,322
895.999878,313
896.116333,321
896.232849,323
896.349304,311
896.465759,308
896.582214,316
896.698669,314
896.815125,302
896.931641,304
897.048035,325
897.164551,323
897.280884,320
897.397339,313
897.513794,313
897.630249,310
897.746582,318
897.863098,330
897.979431,323
898.095886,308
898.212341,327
898.328674,322
898.445129,321
898.561462,327
898.677795,302
898.794312,319
898.910645,316
899.026978,319
899.143433,325
899.259766,308
899.37616,335
899.492493,311
899.608765,314
899.725159,309
899.841553,329
899.957947,323
900.07428,321
900.190552,329
900.306946,314
900.423157,307
900.53949,322
900.655884,317
900.772156,318
900.888489,306
901.004822,322
901.121033,328
901.237366,321
901.353699,312
901.46991,322
901.586304,313
901.702515,329
901.818787,318
901.93512,327
902.051331,317
902.167603,319
902.283875,312
902.400085,335
902.516418,322
902.632629,330
902.74884,315
902.865112,322
902.981384,318
903.097595,329
903.213867,328
903.330017,315
903.446289,312
903.5625,327
903.67865,314
903.794922,310
903.911072,311
904.027344,322
904.143494,314
904.259705,320
904.375916,314
904.492065,324
904.608215,314
904.724426,317
904.840576,318
904.956726,311
905.072876,305
905.189087,315
905.305176,326
905.421387,314
905.537537,317
905.653687,320
905.769775,329
905.885925,313
906.002014,313
906.118164,309
906.234314,309
906.350403,319
906.466492,322
906.582642,321
906.69873,322
906.814758,314
906.930908,325
907.046936,319
907.163086,298
907.279175,314
907.395264,318
907.511353,325
907.62738,311
907.743408,317
907.859497,318
907.975525,330
908.091553,321
908.207703,310
908.32373,320
908.439758,338
908.555786,320
908.671814,319
908.787842,320
908.90387,328
909.019775,320
909.135864,321
909.251892,315
909.367859,316
909.483826,307
909.599854,330
909.715881,312
909.831848,324
909.947815,312
910.063782,322
910.179749,324
910.295776,328
910.411743,313
910.527649,319
910.643616,303
910.759583,322
910.875488,320
910.991455,313
911.107361,318
911.223267,318
911.339294,320
911.4552,329
911.571106,330
911.687073,324
911.802979,320
911.918823,332
912.034729,325
912.150635,307
912.266602,314
912.382446,321
912.498352,328
912.614197,320
912.730103,297
912.846008,309
792.44574,332
792.56488,367
792.68396,417
792.80304,403
792.92218,342
793.041199,335
793.160339,328
793.279419,340
793.398499,333
793.517578,327
793.636658,338
793.755737,354
793.874817,353
793.993896,351
794.112976,339
794.232056,336
794.351074,347
794.470215,340
794.589233,326
794.708313,332
794.827393,340
794.946411,339
795.065552,348
795.18457,348
795.303589,336
795.422668,340
795.541687,329
795.660767,338
795.779846,337
795.898865,324
796.017883,329
796.136963,337
796.255981,348
796.375061,338
796.49408,340
796.613037,333
796.732117,336
796.851135,332
796.970154,331
797.089233,340
797.208191,324
797.327271,331
797.446228,325
797.565186,325
797.684265,316
797.803223,330
797.922241,328
798.04126,324
798.160278,337
798.279297,334
798.398315,326
798.517273,333
798.636292,321
798.75531,347
798.874268,332
798.993286,336
799.112244,323
799.231323,329
799.350281,335
799.469238,321
799.588257,324
799.707153,330
799.826111,328
799.945129,312
800.064087,323
800.183044,336
800.302063,330
800.421021,332
800.539978,338
800.658936,328
800.777893,334
800.896912,338
801.015747,327
801.134705,328
801.253723,324
801.37262,334
801.491638,317
801.610535,330
801.729492,321
801.84845,336
801.967407,315
802.086243,332
802.205261,330
802.324158,338
802.443115,316
802.562073,341
802.680969,315
802.799927,322
802.918762,326
803.037659,326
803.156677,330
803.275574,330
803.39447,321
803.513428,317
803.632263,317
803.751221,320
803.870117,322
803.989014,330
804.107971,325
804.226746,323
804.345642,321
804.4646,335
804.583496,329
804.702393,331
804.821228,313
804.940125,324
805.059021,328
805.177917,324
805.296814,334
805.415649,330
805.534546,312
805.653442,336
805.772278,320
805.891113,324
806.01001,320
806.128906,327
806.247742,320
806.366577,323
806.485413,331
806.604309,323
806.723145,320
806.84198,320
806.960876,321
807.079712,324
807.198486,313
807.317383,331
807.436218,317
807.554993,320
807.673889,323
807.792725,320
807.91156,337
808.030396,326
808.14917,308
808.268005,320
808.386841,322
808.505676,330
808.624451,311
808.743286,326
808.862122,331
808.980896,331
809.099731,332
809.218506,325
809.337341,325
809.456116,326
809.57489,318
809.693726,332
809.8125,339
809.931274,320
810.050049,328
810.168884,312
810.287659,324
810.406372,312
810.525269,342
810.643982,336
810.762756,326
810.881531,326
811.000305,323
811.11908,319
811.237854,319
811.356567,308
811.475403,332
811.594116,319
811.71283,330
811.831604,317
811.950378,323
812.069153,320
812.187927,323
812.30658,330
812.425415,331
812.544128,332
812.662781,322
812.781616,329
812.900269,323
813.019043,324
813.137756,315
813.256531,321
813.375244,323
813.493896,330
813.612671,324
813.731384,338
813.850037,320
813.96875,327
814.087524,317
814.206238,323
814.324951,317
814.443604,329
814.562256,326
814.68103,335
814.799683,307
814.918335,326
815.037109,328
815.155762,318
815.274475,322
815.393188,317
815.511841,342
815.630554,319
815.749146,323
815.867859,315
815.986572,329
816.105164,314
816.223877,322
816.342529,334
816.461182,321
816.579895,334
816.698486,325
816.817139,337
816.935791,326
817.054504,319
817.173096,325
817.291748,336
817.4104,313
817.529053,322
817.647644,325
817.766235,327
817.884949,315
818.00354,327
818.122192,313
818.240845,321
818.359436,326
818.478088,328
818.59668,324
818.715271,319
818.833923,317
818.952515,332
819.071106,329
819.189758,326
819.30835,323
819.426941,323
819.545532,328
819.664124,326
819.782715,327
819.901306,328
820.019897,321
820.138489,316
820.25708,313
820.375671,328
820.494202,316
820.612732,318
820.731384,321
820.849915,322
820.968506,311
821.087097,322
821.205627,343
821.324158,316
821.442749,329
821.561279,325
821.679871,316
821.798401,328
821.916931,306
822.035461,311
822.154053,311
822.272583,335
822.391174,320
822.509583,328
822.628174,310
822.746704,331
822.865234,315
822.983765,311
823.102295,312
823.220825,312
823.339294,321
823.457825,325
823.576355,329
823.694824,298
823.813354,315
823.931885,307
824.050354,331
824.168884,324
824.287354,317
824.405823,309
824.524353,321
824.642822,335
824.761353,319
824.879822,336
824.998291,331
825.116699,331
825.235291,321
825.353699,340
825.472168,311
825.590637,311
825.709106,326
825.827576,309
825.946045,323
826.064453,313
826.182983,313
826.301392,326
826.4198,331
826.53833,309
826.656738,321
826.775208,330
826.893677,327
827.012024,323
827.130493,316
827.248962,315
827.36731,314
827.485779,319
827.604248,317
827.722595,328
827.841064,320
827.959412,317
828.077942,315
828.196289,308
828.314636,325
828.433105,317
828.551514,314
828.669861,319
828.78833,318
828.906677,313
829.025085,330
829.143433,311
829.261841,319
829.38031,322
829.498657,328
829.617004,314
829.735413,318
829.85376,327
829.972107,309
830.090515,317
830.208862,322
830.327209,322
830.445557,326
830.563904,305
830.682312,311
830.800659,324
830.919006,320
831.037354,322
831.155701,328
831.274048,316
831.392395,320
831.51062,314
831.629028,306
831.747314,313
831.865662,315
831.984009,331
832.102356,312
832.220642,320
832.338928,333
832.457275,316
832.575623,327
832.693909,322
832.812134,319
832.930481,319
833.048828,320
833.167114,326
833.2854,322
833.403687,315
833.521973,311
833.640259,323
833.758545,312
833.876831,310
833.995056,317
834.113281,312
834.231628,316
834.349915,325
834.468201,306
834.586426,317
834.704651,324
834.822998,321
834.941162,321
835.059448,322
835.177673,306
835.295959,340
835.414246,306
835.53241,323
835.650635,314
835.768921,320
835.887146,300
836.005371,325
836.123596,312
836.241821,315
836.360046,331
836.478271,322
836.596497,321
836.714722,323
836.832886,323
836.95105,321
837.069336,324
837.1875,325
837.305725,303
837.423889,321
837.542053,316
837.660339,323
837.778503,321
837.896667,329
838.014832,307
838.132996,318
838.25116,312
838.369385,317
838.487488,335
838.605713,319
838.723877,320
838.84198,313
838.960205,318
839.078308,324
839.196472,319
839.314636,323
839.4328,322
839.550964,318
839.669067,316
839.787231,324
839.905396,328
840.023499,325
840.141602,313
840.259766,319
840.377869,325
840.495972,319
840.614136,327
840.732239,331
840.850342,318
840.968445,332
841.086548,321
841.204651,329
841.322754,307
841.440918,322
841.55896,311
841.677002,329
841.795166,339
841.913208,308
842.031311,321
842.149353,333
842.267456,324
842.385498,325
842.503601,321
842.621643,321
842.739746,321
842.857788,328
842.97583,334
843.093933,320
843.211975,318
843.330017,318
843.44812,329
843.566101,328
843.684204,319
843.802246,309
843.920227,327
844.038269,329
844.156311,319
844.274292,320
844.392395,307
844.510376,312
844.628357,322
844.74646,310
844.864441,311
844.982422,324
845.100403,324
845.218384,317
845.336426,329
845.454468,331
845.572449,320
845.69043,311
845.808411,320
845.926453,331
846.044373,318
846.162354,314
846.280396,313
846.398315,325
846.516296,317
846.634216,323
846.752197,328
846.870178,320
846.988098,324
847.106079,325
847.22406,321
847.34198,334
847.4599,315
847.577881,318
847.695801,313
847.813782,320
847.931641,319
848.049561,322
848.167603,324
848.285461,326
848.403381,320
848.521362,325
848.639221,317
848.75708,326
848.875,310
848.99292,308
849.110901,321
849.22876,310
849.34668,322
849.464539,319
849.582458,332
849.700317,322
849.818176,325
849.936096,326
850.053955,322
850.171875,313
850.289673,322
850.407593,321
850.525452,335
850.643311,319
850.761169,319
850.878967,327
850.996887,324
851.114746,328
851.232544,311
851.350403,317
851.468262,317
851.58606,321
851.703979,328
851.821777,331
851.939636,327
852.057434,315
852.175232,318
852.293091,331
852.410889,332
852.528687,331
852.646545,332
852.764343,314
852.88208,346
852.999939,340
853.117676,313
853.235535,317
853.353271,325
853.471069,335
853.588928,305
853.706604,325
853.824402,321
853.9422,316
854.059998,320
854.177734,320
854.295532,325
854.413269,317
854.531006,313
854.648804,343
854.766541,327
854.884277,319
855.002014,321
855.119751,319
855.237549,314
855.355225,325
855.473022,299
855.590698,332
855.708435,331
855.826172,322
855.943848,321
856.061646,317
856.179321,327
856.296997,308
856.414795,317
856.53241,323
856.650085,325
856.767822,321
856.885559,321
857.003174,327
857.120911,305
857.238586,325
857.356201,327
857.473938,335
857.591614,318
857.709351,323
857.826965,313
857.944641,316
858.062317,321
858.179993,328
858.297668,327
858.415283,323
858.532959,315
858.650574,331
858.768188,315
858.885803,322
859.003479,312
859.121094,327
859.23877,334
859.356384,326
859.473999,322
859.591675,310
859.709229,320
859.826843,324
859.944458,303
860.062012,322
860.179626,319
860.297302,322
860.414856,320
860.532471,318
860.650024,323
860.767639,329
860.885193,319
861.002808,323
861.120361,321
861.237976,316
861.35553,316
861.473022,319
861.590698,311
861.708191,343
861.825745,323
861.943298,328
862.060852,321
862.178406,328
862.295959,335
862.413513,329
862.531006,323
862.64856,318
862.766113,312
862.883667,321
863.00116,313
863.118713,335
863.236206,329
863.353699,331
863.471252,307
863.588745,329
863.706177,309
863.82373,324
863.941162,307
864.058716,342
864.176208,314
864.29364,312
864.411194,321
864.528687,320
864.646118,303
864.763611,321
864.881042,310
864.998535,312
865.116028,308
865.233459,326
865.350891,308
865.468384,325
865.585754,328
865.703308,313
865.820679,329
865.938171,327
866.055542,313
866.173035,329
866.290466,329
866.407837,321
866.52533,325
866.6427,324
866.760071,324
866.877563,312
866.994934,318
867.112305,319
867.229736,310
867.347107,306
867.464539,321
867.58197,324
867.699341,331
867.81665,317
867.934082,303
868.051453,329
868.168823,313
868.286194,324
868.403564,318
868.520935,324
868.638306,311
868.755676,320
868.872986,320
868.990295,304
869.107727,323
869.225037,318
869.342346,315
869.459717,319
869.577026,319
869.694336,321
869.811707,310
869.929016,337
870.046326,319
870.163635,317
870.280945,330
870.398254,311
870.515564,318
870.632812,324
870.750183,329
870.867432,332
870.984741,328
871.102051,320
871.219299,310
871.336609,322
871.453918,332
871.571106,318
871.688416,314
871.805664,323
871.922852,309
872.040222,329
872.157471,322
872.274719,329
872.391968,321
872.509155,309
872.626465,326
872.743652,334
872.860962,313
872.978149,325
873.095337,323
873.212646,339
873.329834,316
873.44696,327
873.564209,313
873.681396,310
873.798645,313
873.915894,316
874.03302,311
874.150208,329
874.267456,324
874.384583,338
874.501831,313
874.618958,313
874.736145,313
874.853333,334
874.970459,325
875.087646,329
875.204834,313
875.32196,334
875.439148,327
875.556274,327
875.673401,322
875.790527,317
875.907715,321
876.024841,328
876.141968,317
876.259094,316
876.376282,320
876.493347,325
876.610474,325
876.7276,322
876.844727,320
876.961853,327
877.078918,320
877.195984,329
877.313171,322
877.430237,319
877.547302,320
877.664368,328
877.781433,314
877.898499,329
878.015625,337
878.13269,318
878.249695,316
878.366821,306
878.483887,318
878.600952,323
878.717957,313
878.834961,331
878.952087,321
879.069092,324
879.186157,316
879.303162,332
879.420227,304
879.537231,318
879.654236,316
879.77124,329
879.888306,317
880.005249,332
880.122314,319
880.239319,321
880.356323,315
880.473328,321
880.590271,315
880.707275,312
880.824341,324
880.941284,313
881.058228,320
881.175232,310
881.292236,320
881.40918,327
881.526123,313
881.643066,326
881.760071,323
881.877014,319
881.993958,320
882.11084,317
882.227783,320
882.344727,325
882.46167,314
882.578613,320
882.695618,330
882.812439,321
882.929382,306
883.046326,320
883.163208,334
883.280151,315
883.397034,326
883.513916,328
883.630798,315
883.747742,321
883.864563,315
883.981506,323
884.098389,324
884.21521,319
884.332153,312
884.448975,321
884.565796,322
884.682678,309
884.7995,317
884.916443,321
885.033264,333
885.150085,346
885.266968,315
885.383789,324
885.500671,313
885.617493,328
885.734314,322
885.851196,321
885.967896,317
886.084717,336
886.201599,322
886.318359,322
886.435181,303
886.552002,321
886.668762,313
886.785645,318
886.902344,317
887.019165,327
887.135925,327
887.252747,314
887.369446,323
887.486267,336
887.603027,312
887.719788,330
887.836548,314
887.953247,314
888.070068,329
888.186829,326
888.303528,322
888.420288,328
888.536987,318
888.653687,319
888.770447,309
888.887146,335
889.003967,327
889.120667,313
889.237305,312
889.354065,320
889.470703,315
889.587463,326
889.704163,315
889.820862,319
889.937561,320
890.054199,328
890.170837,315
890.287598,308
890.404236,328
890.520874,304
890.637634,311
890.754211,308
890.87085,327
890.987549,339
891.104187,328
891.220886,315
891.337463,321
891.454102,322
891.57074,310
891.687378,319
891.804077,321
891.920654,329
892.037231,321
892.15387,341
892.270447,319
892.387085,319
892.503723,314
892.6203,320
892.736877,330
892.853516,329
892.970032,314
893.08667,323
893.203186,321
893.319763,335
893.43634,316
893.552917,304
893.669556,322
893.786011,326
893.902588,323
894.019165,320
894.135681,313
894.252197,321
894.368835,323
894.485291,326
894.601868,336
894.718384,314
894.8349,315
894.951355,319
895.067932,319
895.184448,320
895.300964,328
895.417419,303
895.533936,316
895.650452,321
895.766907,305
895.883423,318
895.999878,327
896.116333,339
896.232849,318
896.349304,323
896.465759,315
896.582214,312
896.698669,311
896.815125,324
896.931641,311
897.048035,320
897.164551,338
897.280884,317
897.397339,309
897.513794,315
897.630249,316
897.746582,312
897.863098,319
897.979431,325
898.095886,319
898.212341,328
898.328674,342
898.445129,322
898.561462,317
898.677795,314
898.794312,304
898.910645,314
899.026978,321
899.143433,329
899.259766,318
899.37616,328
899.492493,318
899.608765,321
899.725159,326
899.841553,324
899.957947,321
900.07428,326
900.190552,305
900.306946,317
900.423157,305
900.53949,319
900.655884,326
900.772156,325
900.888489,309
901.004822,323
901.121033,322
901.237366,321
901.353699,328
901.46991,328
901.586304,331
901.702515,332
901.818787,319
901.93512,312
902.051331,317
902.167603,335
902.283875,316
902.400085,320
902.516418,320
902.632629,318
902.74884,312
902.865112,318
902.981384,322
903.097595,329
903.213867,317
903.330017,330
903.446289,319
903.5625,331
903.67865,322
903.794922,328
903.911072,321
904.027344,323
904.143494,316
904.259705,330
904.375916,317
904.492065,325
904.608215,318
904.724426,315
904.840576,322
904.956726,309
905.072876,320
905.189087,325
905.305176,320
905.421387,307
905.537537,307
905.653687,323
905.769775,309
905.885925,330
906.002014,313
906.118164,334
906.234314,317
906.350403,318
906.466492,315
906.582642,312
906.69873,324
906.814758,332
906.930908,311
907.046936,329
907.163086,313
907.279175,330
907.395264,323
907.511353,319
907.62738,311
907.743408,323
907.859497,304
907.975525,308
908.091553,320
908.207703,317
908.32373,318
908.439758,309
908.555786,313
908.671814,320
908.787842,321
908.90387,322
909.019775,318
909.135864,312
909.251892,317
909.367859,313
909.483826,327
909.599854,330
909.715881,301
909.831848,320
909.947815,320
910.063782,328
910.179749,320
910.295776,317
910.411743,315
910.527649,317
910.643616,326
910.759583,325
910.875488,314
910.991455,323
911.107361,309
911.223267,328
911.339294,318
911.4552,318
911.571106,314
911.687073,321
911.802979,319
911.918823,336
912.034729,314
912.150635,333
912.266602,307
912.382446,328
912.498352,303
912.614197,324
912.730103,322
912.846008,317
