792.44574,341
792.56488,382
792.68396,405
792.80304,397
792.92218,345
793.041199,338
793.160339,330
793.279419,338
793.398499,349
793.517578,320
793.636658,333
793.755737,350
793.874817,353
793.993896,345
794.112976,367
794.232056,325
794.351074,341
794.470215,338
794.589233,330
794.708313,333
794.827393,339
794.946411,338
795.065552,336
795.18457,329
795.303589,348
795.422668,338
795.541687,334
795.660767,326
795.779846,344
795.898865,336
796.017883,331
796.136963,341
796.255981,335
796.375061,344
796.49408,331
796.613037,322
796.732117,329
796.851135,324
796.970154,336
797.089233,323
797.208191,338
797.327271,331
797.446228,338
797.565186,340
797.684265,327
797.803223,329
797.922241,324
798.04126,324
798.160278,327
798.279297,338
798.398315,325
798.517273,332
798.636292,321
798.75531,343
798.874268,329
798.993286,331
799.112244,330
799.231323,322
799.350281,327
799.469238,330
799.588257,332
799.707153,331
799.826111,337
799.945129,321
800.064087,337
800.183044,337
800.302063,326
800.421021,317
800.539978,338
800.658936,332
800.777893,329
800.896912,321
801.015747,321
801.134705,331
801.253723,327
801.37262,335
801.491638,330
801.610535,339
801.729492,328
801.84845,331
801.967407,317
802.086243,314
802.205261,315
802.324158,329
802.443115,330
802.562073,326
802.680969,331
802.799927,322
802.918762,331
803.037659,339
803.156677,328
803.275574,321
803.39447,304
803.513428,310
803.632263,317
803.751221,318
803.870117,315
803.989014,338
804.107971,319
804.226746,324
804.345642,323
804.4646,328
804.583496,324
804.702393,336
804.821228,318
804.940125,337
805.059021,340
805.177917,339
805.296814,319
805.415649,322
805.534546,335
805.653442,339
805.772278,337
805.891113,320
806.01001,329
806.128906,333
806.247742,317
806.366577,331
806.485413,327
806.604309,321
806.723145,344
806.84198,341
806.960876,324
807.079712,326
807.198486,334
807.317383,317
807.436218,324
807.554993,334
807.673889,329
807.792725,332
807.91156,335
808.030396,330
808.14917,330
808.268005,334
808.386841,322
808.505676,333
808.624451,327
808.743286,325
808.862122,317
808.980896,347
809.099731,318
809.218506,326
809.337341,340
809.456116,336
809.57489,332
809.693726,336
809.8125,326
809.931274,320
810.050049,332
810.168884,322
810.287659,330
810.406372,313
810.525269,347
810.643982,325
810.762756,336
810.881531,334
811.000305,329
811.11908,323
811.237854,345
811.356567,323
811.475403,334
811.594116,331
811.71283,335
811.831604,337
811.950378,325
812.069153,334
812.187927,328
812.30658,323
812.425415,317
812.544128,324
812.662781,330
812.781616,333
812.900269,334
813.019043,324
813.137756,335
813.256531,330
813.375244,330
813.493896,326
813.612671,323
813.731384,328
813.850037,325
813.96875,328
814.087524,321
814.206238,339
814.324951,323
814.443604,330
814.562256,332
814.68103,345
814.799683,323
814.918335,326
815.037109,323
815.155762,334
815.274475,319
815.393188,329
815.511841,335
815.630554,325
815.749146,322
815.867859,318
815.986572,324
816.105164,322
816.223877,326
816.342529,324
816.461182,316
816.579895,314
816.698486,338
816.817139,325
816.935791,327
817.054504,338
817.173096,328
817.291748,328
817.4104,342
817.529053,317
817.647644,328
817.766235,339
817.884949,331
818.00354,318
818.122192,319
818.240845,327
818.359436,322
818.478088,332
818.59668,334
818.715271,320
818.833923,316
818.952515,337
819.071106,321
819.189758,315
819.30835,326
819.426941,306
819.545532,319
819.664124,312
819.782715,324
819.901306,311
820.019897,322
820.138489,312
820.25708,310
820.375671,318
820.494202,315
820.612732,317
820.731384,326
820.849915,316
820.968506,314
821.087097,324
821.205627,310
821.324158,329
821.442749,317
821.561279,322
821.679871,314
821.798401,320
821.916931,321
822.035461,315
822.154053,318
822.272583,316
822.391174,322
822.509583,306
822.628174,326
822.746704,325
822.865234,313
822.983765,328
823.102295,312
823.220825,329
823.339294,323
823.457825,314
823.576355,322
823.694824,322
823.813354,314
823.931885,325
824.050354,320
824.168884,320
824.287354,319
824.405823,321
824.524353,316
824.642822,319
824.761353,329
824.879822,314
824.998291,337
825.116699,325
825.235291,304
825.353699,319
825.472168,324
825.590637,313
825.709106,337
825.827576,307
825.946045,330
826.064453,318
826.182983,320
826.301392,325
826.4198,322
826.53833,311
826.656738,318
826.775208,305
826.893677,318
827.012024,310
827.130493,313
827.248962,318
827.36731,324
827.485779,311
827.604248,319
827.722595,311
827.841064,321
827.959412,331
828.077942,317
828.196289,315
828.314636,308
828.433105,318
828.551514,310
828.669861,338
828.78833,319
828.906677,303
829.025085,335
829.143433,317
829.261841,318
829.38031,313
829.498657,314
829.617004,313
829.735413,318
829.85376,318
829.972107,307
830.090515,320
830.208862,323
830.327209,306
830.445557,313
830.563904,321
830.682312,310
830.800659,320
830.919006,310
831.037354,309
831.155701,323
831.274048,307
831.392395,322
831.51062,327
831.629028,309
831.747314,307
831.865662,318
831.984009,303
832.102356,315
832.220642,317
832.338928,319
832.457275,299
832.575623,304
832.693909,319
832.812134,319
832.930481,313
833.048828,313
833.167114,319
833.2854,302
833.403687,320
833.521973,308
833.640259,320
833.758545,318
833.876831,306
833.995056,324
834.113281,338
834.231628,306
834.349915,320
834.468201,308
834.586426,313
834.704651,316
834.822998,321
834.941162,322
835.059448,326
835.177673,324
835.295959,313
835.414246,311
835.53241,308
835.650635,322
835.768921,327
835.887146,318
836.005371,317
836.123596,323
836.241821,313
836.360046,321
836.478271,309
836.596497,316
836.714722,310
836.832886,307
836.95105,336
837.069336,317
837.1875,332
837.305725,316
837.423889,321
837.542053,319
837.660339,313
837.778503,320
837.896667,316
838.014832,318
838.132996,322
838.25116,315
838.369385,319
838.487488,322
838.605713,331
838.723877,331
838.84198,314
838.960205,320
839.078308,320
839.196472,325
839.314636,318
839.4328,321
839.550964,305
839.669067,312
839.787231,327
839.905396,329
840.023499,319
840.141602,310
840.259766,321
840.377869,318
840.495972,321
840.614136,320
840.732239,339
840.850342,314
840.968445,316
841.086548,315
841.204651,312
841.322754,328
841.440918,316
841.55896,319
841.677002,320
841.795166,313
841.913208,320
842.031311,319
842.149353,319
842.267456,319
842.385498,320
842.503601,317
842.621643,318
842.739746,308
842.857788,320
842.97583,317
843.093933,327
843.211975,325
843.330017,314
843.44812,332
843.566101,305
843.684204,322
843.802246,315
843.920227,319
844.038269,332
844.156311,310
844.274292,317
844.392395,308
844.510376,314
844.628357,318
844.74646,309
844.864441,323
844.982422,314
845.100403,315
845.218384,315
845.336426,313
845.454468,331
845.572449,310
845.69043,310
845.808411,335
845.926453,323
846.044373,309
846.162354,318
846.280396,305
846.398315,316
846.516296,313
846.634216,319
846.752197,333
846.870178,323
846.988098,318
847.106079,326
847.22406,306
847.34198,320
847.4599,313
847.577881,319
847.695801,314
847.813782,327
847.931641,321
848.049561,318
848.167603,322
848.285461,332
848.403381,330
848.521362,322
848.639221,332
848.75708,319
848.875,314
848.99292,322
849.110901,301
849.22876,309
849.34668,321
849.464539,309
849.582458,326
849.700317,319
849.818176,326
849.936096,332
850.053955,319
850.171875,324
850.289673,330
850.407593,327
850.525452,321
850.643311,322
850.761169,316
850.878967,315
850.996887,309
851.114746,312
851.232544,312
851.350403,310
851.468262,327
851.58606,317
851.703979,314
851.821777,310
851.939636,315
852.057434,328
852.175232,312
852.293091,317
852.410889,322
852.528687,325
852.646545,327
852.764343,323
852.88208,322
852.999939,311
853.117676,317
853.235535,298
853.353271,320
853.471069,323
853.588928,325
853.706604,316
853.824402,314
853.9422,320
854.059998,311
854.177734,315
854.295532,315
854.413269,320
854.531006,308
854.648804,318
854.766541,327
854.884277,334
855.002014,331
855.119751,320
855.237549,333
855.355225,319
855.473022,303
855.590698,325
855.708435,316
855.826172,304
855.943848,330
856.061646,321
856.179321,322
856.296997,319
856.414795,319
856.53241,309
856.650085,319
856.767822,314
856.885559,319
857.003174,338
857.120911,319
857.238586,321
857.356201,316
857.473938,319
857.591614,321
857.709351,331
857.826965,329
857.944641,331
858.062317,325
858.179993,321
858.297668,305
858.415283,319
858.532959,318
858.650574,324
858.768188,319
858.885803,324
859.003479,319
859.121094,322
859.23877,322
859.356384,321
859.473999,306
859.591675,313
859.709229,305
859.826843,311
859.944458,323
860.062012,326
860.179626,319
860.297302,309
860.414856,304
860.532471,312
860.650024,331
860.767639,325
860.885193,318
861.002808,311
861.120361,322
861.237976,317
861.35553,315
861.473022,325
861.590698,329
861.708191,323
861.825745,322
861.943298,324
862.060852,308
862.178406,330
862.295959,316
862.413513,324
862.531006,313
862.64856,322
862.766113,320
862.883667,328
863.00116,317
863.118713,320
863.236206,319
863.353699,317
863.471252,320
863.588745,315
863.706177,312
863.82373,327
863.941162,325
864.058716,311
864.176208,330
864.29364,315
864.411194,311
864.528687,321
864.646118,314
864.763611,307
864.881042,307
864.998535,318
865.116028,310
865.233459,321
865.350891,315
865.468384,315
865.585754,315
865.703308,313
865.820679,308
865.938171,311
866.055542,320
866.173035,320
866.290466,322
866.407837,319
866.52533,329
866.6427,325
866.760071,314
866.877563,316
866.994934,329
867.112305,331
867.229736,317
867.347107,327
867.464539,308
867.58197,320
867.699341,311
867.81665,318
867.934082,310
868.051453,317
868.168823,314
868.286194,327
868.403564,316
868.520935,326
868.638306,308
868.755676,323
868.872986,313
868.990295,307
869.107727,320
869.225037,314
869.342346,315
869.459717,306
869.577026,332
869.694336,320
869.811707,315
869.929016,310
870.046326,318
870.163635,314
870.280945,317
870.398254,312
870.515564,328
870.632812,324
870.750183,315
870.867432,313
870.984741,320
871.102051,328
871.219299,310
871.336609,324
871.453918,318
871.571106,314
871.688416,315
871.805664,321
871.922852,332
872.040222,324
872.157471,305
872.274719,323
872.391968,311
872.509155,327
872.626465,315
872.743652,327
872.860962,334
872.978149,326
873.095337,313
873.212646,313
873.329834,310
873.44696,332
873.564209,321
873.681396,321
873.798645,325
873.915894,304
874.03302,313
874.150208,323
874.267456,315
874.384583,318
874.501831,311
874.618958,328
874.736145,319
874.853333,321
874.970459,316
875.087646,317
875.204834,317
875.32196,321
875.439148,315
875.556274,327
875.673401,314
875.790527,322
875.907715,322
876.024841,308
876.141968,332
876.259094,316
876.376282,326
876.493347,311
876.610474,315
876.7276,308
876.844727,319
876.961853,311
877.078918,309
877.195984,323
877.313171,317
877.430237,319
877.547302,318
877.664368,316
877.781433,305
877.898499,341
878.015625,318
878.13269,327
878.249695,334
878.366821,322
878.483887,308
878.600952,342
878.717957,330
878.834961,307
878.952087,312
879.069092,314
879.186157,307
879.303162,329
879.420227,316
879.537231,314
879.654236,319
879.77124,316
879.888306,312
880.005249,328
880.122314,327
880.239319,331
880.356323,326
880.473328,318
880.590271,317
880.707275,300
880.824341,322
880.941284,313
881.058228,316
881.175232,322
881.292236,324
881.40918,314
881.526123,309
881.643066,328
881.760071,318
881.877014,333
881.993958,309
882.11084,325
882.227783,329
882.344727,331
882.46167,331
882.578613,321
882.695618,318
882.812439,325
882.929382,311
883.046326,339
883.163208,312
883.280151,313
883.397034,318
883.513916,311
883.630798,314
883.747742,320
883.864563,323
883.981506,317
884.098389,322
884.21521,316
884.332153,313
884.448975,326
884.565796,318
884.682678,318
884.7995,321
884.916443,312
885.033264,311
885.150085,323
885.266968,320
885.383789,324
885.500671,312
885.617493,322
885.734314,321
885.851196,339
885.967896,307
886.084717,309
886.201599,330
886.318359,319
886.435181,316
886.552002,314
886.668762,328
886.785645,330
886.902344,314
887.019165,326
887.135925,326
887.252747,316
887.369446,327
887.486267,318
887.603027,325
887.719788,323
887.836548,312
887.953247,319
888.070068,320
888.186829,314
888.303528,312
888.420288,319
888.536987,315
888.653687,325
888.770447,325
888.887146,320
889.003967,321
889.120667,310
889.237305,325
889.354065,313
889.470703,322
889.587463,311
889.704163,313
889.820862,319
889.937561,318
890.054199,321
890.170837,326
890.287598,321
890.404236,328
890.520874,326
890.637634,308
890.754211,326
890.87085,319
890.987549,327
891.104187,317
891.220886,324
891.337463,316
891.454102,312
891.57074,321
891.687378,325
891.804077,329
891.920654,312
892.037231,316
892.15387,325
892.270447,316
892.387085,319
892.503723,315
892.6203,311
892.736877,319
892.853516,317
892.970032,320
893.08667,324
893.203186,306
893.319763,323
893.43634,313
893.552917,328
893.669556,326
893.786011,307
893.902588,313
894.019165,325
894.135681,306
894.252197,314
894.368835,309
894.485291,297
894.601868,302
894.718384,323
894.8349,306
894.951355,324
895.067932,301
895.184448,316
895.300964,307
895.417419,324
895.533936,304
895.650452,321
895.766907,326
895.883423,320
895.999878,311
896.116333,320
896.232849,321
896.349304,312
896.465759,312
896.582214,316
896.698669,311
896.815125,315
896.931641,318
897.048035,310
897.164551,320
897.280884,331
897.397339,327
897.513794,321
897.630249,311
897.746582,316
897.863098,310
897.979431,317
898.095886,308
898.212341,320
898.328674,322
898.445129,308
898.561462,318
898.677795,327
898.794312,304
898.910645,313
899.026978,326
899.143433,313
899.259766,315
899.37616,315
899.492493,322
899.608765,334
899.725159,323
899.841553,318
899.957947,321
900.07428,332
900.190552,315
900.306946,318
900.423157,306
900.53949,308
900.655884,315
900.772156,325
900.888489,311
901.004822,327
901.121033,322
901.237366,304
901.353699,307
901.46991,325
901.586304,314
901.702515,312
901.818787,328
901.93512,316
902.051331,324
902.167603,324
902.283875,318
902.400085,332
902.516418,329
902.632629,325
902.74884,329
902.865112,308
902.981384,319
903.097595,317
903.213867,320
903.330017,332
903.446289,307
903.5625,333
903.67865,324
903.794922,311
903.911072,316
904.027344,310
904.143494,308
904.259705,320
904.375916,328
904.492065,330
904.608215,314
904.724426,313
904.840576,305
904.956726,329
905.072876,319
905.189087,315
905.305176,317
905.421387,318
905.537537,323
905.653687,324
905.769775,310
905.885925,313
906.002014,323
906.118164,311
906.234314,302
906.350403,316
906.466492,324
906.582642,315
906.69873,315
906.814758,323
906.930908,303
907.046936,321
907.163086,315
907.279175,305
907.395264,324
907.511353,326
907.62738,322
907.743408,324
907.859497,325
907.975525,326
908.091553,321
908.207703,301
908.32373,305
908.439758,320
908.555786,311
908.671814,313
908.787842,318
908.90387,324
909.019775,323
909.135864,317
909.251892,308
909.367859,321
909.483826,305
909.599854,326
909.715881,319
909.831848,320
909.947815,317
910.063782,321
910.179749,307
910.295776,317
910.411743,317
910.527649,326
910.643616,312
910.759583,316
910.875488,321
910.991455,307
911.107361,322
911.223267,318
911.339294,312
911.4552,317
911.571106,320
911.687073,325
911.802979,321
911.918823,311
912.034729,321
912.150635,310
912.266602,317
912.382446,313
912.498352,322
912.614197,315
912.730103,301
912.846008,324
792.44574,329
792.56488,360
792.68396,400
792.80304,398
792.92218,356
793.041199,333
793.160339,330
793.279419,338
793.398499,351
793.517578,338
793.636658,330
793.755737,347
793.874817,357
793.993896,361
794.112976,342
794.232056,336
794.351074,328
794.470215,344
794.589233,334
794.708313,346
794.827393,329
794.946411,352
795.065552,342
795.18457,337
795.303589,340
795.422668,336
795.541687,340
795.660767,343
795.779846,336
795.898865,336
796.017883,327
796.136963,327
796.255981,322
796.375061,334
796.49408,329
796.613037,346
796.732117,342
796.851135,327
796.970154,344
797.089233,330
797.208191,339
797.327271,332
797.446228,322
797.565186,324
797.684265,339
797.803223,332
797.922241,338
798.04126,328
798.160278,328
798.279297,329
798.398315,343
798.517273,327
798.636292,333
798.75531,336
798.874268,342
798.993286,325
799.112244,325
799.231323,333
799.350281,334
799.469238,319
799.588257,336
799.707153,329
799.826111,327
799.945129,339
800.064087,321
800.183044,332
800.302063,326
800.421021,333
800.539978,331
800.658936,336
800.777893,326
800.896912,334
801.015747,340
801.134705,335
801.253723,327
801.37262,330
801.491638,340
801.610535,324
801.729492,340
801.84845,320
801.967407,328
802.086243,340
802.205261,327
802.324158,329
802.443115,328
802.562073,327
802.680969,329
802.799927,325
802.918762,322
803.037659,327
803.156677,332
803.275574,331
803.39447,323
803.513428,336
803.632263,323
803.751221,328
803.870117,326
803.989014,331
804.107971,331
804.226746,333
804.345642,329
804.4646,338
804.583496,338
804.702393,331
804.821228,330
804.940125,343
805.059021,324
805.177917,323
805.296814,332
805.415649,329
805.534546,337
805.653442,315
805.772278,340
805.891113,334
806.01001,344
806.128906,316
806.247742,327
806.366577,322
806.485413,324
806.604309,337
806.723145,333
806.84198,325
806.960876,339
807.079712,338
807.198486,325
807.317383,325
807.436218,337
807.554993,330
807.673889,333
807.792725,340
807.91156,338
808.030396,327
808.14917,329
808.268005,326
808.386841,340
808.505676,329
808.624451,326
808.743286,329
808.862122,319
808.980896,324
809.099731,326
809.218506,330
809.337341,332
809.456116,328
809.57489,332
809.693726,329
809.8125,334
809.931274,323
810.050049,330
810.168884,324
810.287659,321
810.406372,337
810.525269,334
810.643982,330
810.762756,320
810.881531,337
811.000305,313
811.11908,328
811.237854,336
811.356567,335
811.475403,332
811.594116,323
811.71283,327
811.831604,331
811.950378,320
812.069153,320
812.187927,322
812.30658,323
812.425415,321
812.544128,345
812.662781,332
812.781616,322
812.900269,337
813.019043,314
813.137756,346
813.256531,337
813.375244,332
813.493896,341
813.612671,330
813.731384,323
813.850037,340
813.96875,331
814.087524,337
814.206238,333
814.324951,334
814.443604,327
814.562256,328
814.68103,335
814.799683,334
814.918335,330
815.037109,342
815.155762,327
815.274475,341
815.393188,333
815.511841,326
815.630554,323
815.749146,332
815.867859,327
815.986572,323
816.105164,332
816.223877,322
816.342529,328
816.461182,322
816.579895,320
816.698486,329
816.817139,329
816.935791,328
817.054504,333
817.173096,325
817.291748,327
817.4104,329
817.529053,323
817.647644,315
817.766235,320
817.884949,319
818.00354,342
818.122192,326
818.240845,338
818.359436,343
818.478088,319
818.59668,322
818.715271,326
818.833923,323
818.952515,317
819.071106,335
819.189758,318
819.30835,333
819.426941,313
819.545532,330
819.664124,321
819.782715,323
819.901306,332
820.019897,311
820.138489,332
820.25708,321
820.375671,321
820.494202,318
820.612732,306
820.731384,321
820.849915,325
820.968506,324
821.087097,339
821.205627,312
821.324158,322
821.442749,325
821.561279,322
821.679871,310
821.798401,322
821.916931,311
822.035461,323
822.154053,325
822.272583,322
822.391174,297
822.509583,330
822.628174,313
822.746704,334
822.865234,310
822.983765,325
823.102295,318
823.220825,318
823.339294,321
823.457825,320
823.576355,317
823.694824,318
823.813354,329
823.931885,312
824.050354,305
824.168884,324
824.287354,315
824.405823,324
824.524353,323
824.642822,315
824.761353,316
824.879822,316
824.998291,301
825.116699,329
825.235291,311
825.353699,330
825.472168,307
825.590637,324
825.709106,317
825.827576,323
825.946045,318
826.064453,336
826.182983,311
826.301392,317
826.4198,325
826.53833,319
826.656738,318
826.775208,324
826.893677,318
827.012024,307
827.130493,321
827.248962,329
827.36731,318
827.485779,316
827.604248,327
827.722595,320
827.841064,320
827.959412,318
828.077942,309
828.196289,329
828.314636,318
828.433105,324
828.551514,313
828.669861,321
828.78833,322
828.906677,315
829.025085,305
829.143433,319
829.261841,324
829.38031,319
829.498657,320
829.617004,317
829.735413,319
829.85376,322
829.972107,317
830.090515,311
830.208862,315
830.327209,315
830.445557,332
830.563904,318
830.682312,309
830.800659,323
830.919006,322
831.037354,311
831.155701,333
831.274048,328
831.392395,322
831.51062,324
831.629028,331
831.747314,312
831.865662,315
831.984009,311
832.102356,305
832.220642,327
832.338928,331
832.457275,319
832.575623,322
832.693909,310
832.812134,331
832.930481,318
833.048828,302
833.167114,322
833.2854,322
833.403687,329
833.521973,325
833.640259,327
833.758545,323
833.876831,317
833.995056,329
834.113281,314
834.231628,317
834.349915,321
834.468201,318
834.586426,326
834.704651,324
834.822998,325
834.941162,319
835.059448,318
835.177673,324
835.295959,321
835.414246,315
835.53241,316
835.650635,321
835.768921,335
835.887146,312
836.005371,317
836.123596,325
836.241821,320
836.360046,320
836.478271,318
836.596497,315
836.714722,323
836.832886,314
836.95105,323
837.069336,336
837.1875,332
837.305725,321
837.423889,335
837.542053,319
837.660339,328
837.778503,317
837.896667,325
838.014832,324
838.132996,315
838.25116,318
838.369385,320
838.487488,312
838.605713,314
838.723877,316
838.84198,310
838.960205,320
839.078308,314
839.196472,329
839.314636,328
839.4328,328
839.550964,319
839.669067,315
839.787231,332
839.905396,315
840.023499,334
840.141602,323
840.259766,325
840.377869,319
840.495972,318
840.614136,325
840.732239,324
840.850342,304
840.968445,316
841.086548,327
841.204651,317
841.322754,321
841.440918,329
841.55896,320
841.677002,321
841.795166,303
841.913208,325
842.031311,339
842.149353,326
842.267456,320
842.385498,322
842.503601,322
842.621643,322
842.739746,311
842.857788,327
842.97583,322
843.093933,316
843.211975,322
843.330017,319
843.44812,330
843.566101,312
843.684204,321
843.802246,335
843.920227,324
844.038269,320
844.156311,317
844.274292,322
844.392395,311
844.510376,313
844.628357,322
844.74646,325
844.864441,319
844.982422,326
845.100403,309
845.218384,318
845.336426,318
845.454468,320
845.572449,316
845.69043,315
845.808411,319
845.926453,318
846.044373,310
846.162354,322
846.280396,311
846.398315,327
846.516296,316
846.634216,311
846.752197,312
846.870178,330
846.988098,331
847.106079,310
847.22406,309
847.34198,328
847.4599,330
847.577881,325
847.695801,321
847.813782,328
847.931641,313
848.049561,317
848.167603,326
848.285461,324
848.403381,324
848.521362,333
848.639221,315
848.75708,328
848.875,316
848.99292,309
849.110901,325
849.22876,314
849.34668,315
849.464539,329
849.582458,309
849.700317,334
849.818176,313
849.936096,322
850.053955,307
850.171875,340
850.289673,311
850.407593,311
850.525452,314
850.643311,322
850.761169,306
850.878967,320
850.996887,315
851.114746,311
851.232544,316
851.350403,324
851.468262,326
851.58606,329
851.703979,309
851.821777,327
851.939636,317
852.057434,333
852.175232,325
852.293091,321
852.410889,324
852.528687,319
852.646545,312
852.764343,315
852.88208,312
852.999939,317
853.117676,313
853.235535,322
853.353271,317
853.471069,323
853.588928,321
853.706604,317
853.824402,324
853.9422,304
854.059998,317
854.177734,334
854.295532,319
854.413269,324
854.531006,312
854.648804,333
854.766541,326
854.884277,327
855.002014,320
855.119751,328
855.237549,314
855.355225,315
855.473022,324
855.590698,321
855.708435,322
855.826172,325
855.943848,330
856.061646,327
856.179321,325
856.296997,313
856.414795,318
856.53241,321
856.650085,306
856.767822,327
856.885559,316
857.003174,312
857.120911,315
857.238586,317
857.356201,316
857.473938,319
857.591614,324
857.709351,336
857.826965,320
857.944641,323
858.062317,307
858.179993,317
858.297668,315
858.415283,312
858.532959,325
858.650574,312
858.768188,319
858.885803,320
859.003479,318
859.121094,334
859.23877,334
859.356384,317
859.473999,318
859.591675,324
859.709229,323
859.826843,319
859.944458,332
860.062012,314
860.179626,328
860.297302,323
860.414856,320
860.532471,327
860.650024,302
860.767639,321
860.885193,325
861.002808,313
861.120361,321
861.237976,308
861.35553,313
861.473022,312
861.590698,313
861.708191,318
861.825745,320
861.943298,324
862.060852,319
862.178406,313
862.295959,323
862.413513,328
862.531006,323
862.64856,313
862.766113,314
862.883667,312
863.00116,318
863.118713,310
863.236206,315
863.353699,319
863.471252,325
863.588745,326
863.706177,315
863.82373,309
863.941162,324
864.058716,323
864.176208,315
864.29364,319
864.411194,315
864.528687,306
864.646118,319
864.763611,328
864.881042,318
864.998535,320
865.116028,307
865.233459,324
865.350891,314
865.468384,311
865.585754,313
865.703308,322
865.820679,320
865.938171,309
866.055542,329
866.173035,325
866.290466,318
866.407837,312
866.52533,330
866.6427,323
866.760071,304
866.877563,315
866.994934,335
867.112305,322
867.229736,318
867.347107,320
867.464539,324
867.58197,328
867.699341,300
867.81665,318
867.934082,313
868.051453,330
868.168823,317
868.286194,322
868.403564,311
868.520935,326
868.638306,309
868.755676,330
868.872986,325
868.990295,314
869.107727,317
869.225037,322
869.342346,316
869.459717,326
869.577026,323
869.694336,322
869.811707,325
869.929016,316
870.046326,326
870.163635,326
870.280945,318
870.398254,317
870.515564,295
870.632812,325
870.750183,313
870.867432,319
870.984741,316
871.102051,321
871.219299,323
871.336609,321
871.453918,310
871.571106,316
871.688416,323
871.805664,328
871.922852,321
872.040222,312
872.157471,310
872.274719,319
872.391968,318
872.509155,314
872.626465,317
872.743652,328
872.860962,334
872.978149,314
873.095337,323
873.212646,317
873.329834,321
873.44696,323
873.564209,331
873.681396,322
873.798645,303
873.915894,315
874.03302,323
874.150208,330
874.267456,317
874.384583,320
874.501831,308
874.618958,333
874.736145,313
874.853333,322
874.970459,335
875.087646,329
875.204834,337
875.32196,311
875.439148,324
875.556274,327
875.673401,315
875.790527,326
875.907715,307
876.024841,314
876.141968,319
876.259094,332
876.376282,316
876.493347,325
876.610474,310
876.7276,326
876.844727,318
876.961853,333
877.078918,308
877.195984,311
877.313171,322
877.430237,328
877.547302,319
877.664368,308
877.781433,323
877.898499,322
878.015625,309
878.13269,322
878.249695,326
878.366821,323
878.483887,317
878.600952,321
878.717957,327
878.834961,316
878.952087,312
879.069092,331
879.186157,308
879.303162,328
879.420227,323
879.537231,321
879.654236,334
879.77124,328
879.888306,322
880.005249,315
880.122314,319
880.239319,318
880.356323,315
880.473328,317
880.590271,324
880.707275,307
880.824341,324
880.941284,338
881.058228,318
881.175232,324
881.292236,311
881.40918,317
881.526123,318
881.643066,319
881.760071,329
881.877014,314
881.993958,332
882.11084,309
882.227783,313
882.344727,315
882.46167,326
882.578613,314
882.695618,323
882.812439,311
882.929382,302
883.046326,323
883.163208,321
883.280151,319
883.397034,313
883.513916,331
883.630798,323
883.747742,320
883.864563,315
883.981506,314
884.098389,322
884.21521,316
884.332153,316
884.448975,326
884.565796,324
884.682678,315
884.7995,324
884.916443,319
885.033264,324
885.150085,327
885.266968,328
885.383789,324
885.500671,331
885.617493,325
885.734314,327
885.851196,317
885.967896,321
886.084717,322
886.201599,319
886.318359,317
886.435181,327
886.552002,317
886.668762,312
886.785645,323
886.902344,321
887.019165,328
887.135925,325
887.252747,332
887.369446,316
887.486267,324
887.603027,320
887.719788,327
887.836548,316
887.953247,331
888.070068,312
888.186829,310
888.303528,323
888.420288,338
888.536987,309
888.653687,326
888.770447,316
888.887146,325
889.003967,317
889.120667,322
889.237305,312
889.354065,312
889.470703,330
889.587463,315
889.704163,316
889.820862,314
889.937561,298
890.054199,302
890.170837,322
890.287598,331
890.404236,327
890.520874,329
890.637634,326
890.754211,323
890.87085,317
890.987549,317
891.104187,328
891.220886,323
891.337463,316
891.454102,326
891.57074,332
891.687378,316
891.804077,318
891.920654,306
892.037231,316
892.15387,324
892.270447,309
892.387085,316
892.503723,326
892.6203,310
892.736877,317
892.853516,322
892.970032,310
893.08667,313
893.203186,318
893.319763,318
893.43634,316
893.552917,306
893.669556,327
893.786011,311
893.902588,318
894.019165,317
894.135681,310
894.252197,305
894.368835,319
894.485291,308
894.601868,320
894.718384,326
894.8349,321
894.951355,331
895.067932,324
895.184448,313
895.300964,326
895.417419,316
895.533936,317
895.650452,311
895.766907,315
895.883423,318
895.999878,316
896.116333,322
896.232849,320
896.349304,323
896.465759,310
896.582214,313
896.698669,310
896.815125,331
896.931641,326
897.048035,320
897.164551,322
897.280884,317
897.397339,312
897.513794,312
897.630249,321
897.746582,324
897.863098,316
897.979431,329
898.095886,322
898.212341,319
898.328674,306
898.445129,332
898.561462,326
898.677795,328
898.794312,330
898.910645,321
899.026978,309
899.143433,318
899.259766,324
899.37616,326
899.492493,301
899.608765,306
899.725159,314
899.841553,319
899.957947,317
900.07428,324
900.190552,315
900.306946,326
900.423157,323
900.53949,314
900.655884,319
900.772156,338
900.888489,316
901.004822,322
901.121033,310
901.237366,316
901.353699,306
901.46991,327
901.586304,308
901.702515,317
901.818787,317
901.93512,332
902.051331,311
902.167603,318
902.283875,315
902.400085,322
902.516418,306
902.632629,333
902.74884,314
902.865112,326
902.981384,320
903.097595,315
903.213867,316
903.330017,335
903.446289,338
903.5625,323
903.67865,302
903.794922,331
903.911072,320
904.027344,321
904.143494,322
904.259705,316
904.375916,311
904.492065,315
904.608215,309
904.724426,318
904.840576,318
904.956726,331
905.072876,325
905.189087,332
905.305176,334
905.421387,328
905.537537,318
905.653687,323
905.769775,325
905.885925,324
906.002014,312
906.118164,324
906.234314,310
906.350403,311
906.466492,330
906.582642,304
906.69873,306
906.814758,327
906.930908,326
907.046936,330
907.163086,327
907.279175,328
907.395264,317
907.511353,320
907.62738,307
907.743408,311
907.859497,300
907.975525,320
908.091553,316
908.207703,317
908.32373,318
908.439758,321
908.555786,325
908.671814,312
908.787842,317
908.90387,309
909.019775,329
909.135864,324
909.251892,322
909.367859,321
909.483826,313
909.599854,326
909.715881,308
909.831848,316
909.947815,322
910.063782,313
910.179749,336
910.295776,323
910.411743,320
910.527649,332
910.643616,306
910.759583,324
910.875488,307
910.991455,321
911.107361,318
911.223267,331
911.339294,319
911.4552,327
911.571106,315
911.687073,323
911.802979,328
911.918823,332
912.034729,308
912.150635,309
912.266602,307
912.382446,323
912.498352,320
912.614197,327
912.730103,312
912.846008,303
792.44574,337
792.56488,369
792.68396,423
792.80304,391
792.92218,341
793.041199,346
793.160339,330
793.279419,353
793.398499,362
793.517578,325
793.636658,337
793.755737,343
793.874817,351
793.993896,359
794.112976,347
794.232056,323
794.351074,326
794.470215,334
794.589233,330
794.708313,338
794.827393,336
794.946411,336
795.065552,345
795.18457,334
795.303589,337
795.422668,343
795.541687,343
795.660767,344
795.779846,341
795.898865,325
796.017883,349
796.136963,323
796.255981,333
796.375061,333
796.49408,355
796.613037,329
796.732117,334
796.851135,326
796.970154,343
797.089233,341
797.208191,339
797.327271,335
797.446228,332
797.565186,331
797.684265,345
797.803223,339
797.922241,329
798.04126,315
798.160278,324
798.279297,330
798.398315,331
798.517273,329
798.636292,333
798.75531,336
798.874268,322
798.993286,340
799.112244,320
799.231323,330
799.350281,324
799.469238,335
799.588257,326
799.707153,336
799.826111,316
799.945129,325
800.064087,330
800.183044,327
800.302063,329
800.421021,342
800.539978,332
800.658936,327
800.777893,338
800.896912,326
801.015747,326
801.134705,334
801.253723,331
801.37262,337
801.491638,345
801.610535,338
801.729492,337
801.84845,320
801.967407,325
802.086243,311
802.205261,334
802.324158,335
802.443115,320
802.562073,338
802.680969,331
802.799927,336
802.918762,325
803.037659,337
803.156677,343
803.275574,321
803.39447,331
803.513428,316
803.632263,320
803.751221,347
803.870117,328
803.989014,331
804.107971,335
804.226746,324
804.345642,337
804.4646,318
804.583496,327
804.702393,331
804.821228,322
804.940125,337
805.059021,318
805.177917,338
805.296814,329
805.415649,332
805.534546,332
805.653442,316
805.772278,334
805.891113,328
806.01001,318
806.128906,335
806.247742,312
806.366577,334
806.485413,329
806.604309,320
806.723145,324
806.84198,322
806.960876,323
807.079712,326
807.198486,334
807.317383,325
807.436218,324
807.554993,333
807.673889,329
807.792725,322
807.91156,328
808.030396,337
808.14917,335
808.268005,330
808.386841,328
808.505676,333
808.624451,339
808.743286,328
808.862122,336
808.980896,319
809.099731,332
809.218506,332
809.337341,340
809.456116,330
809.57489,324
809.693726,332
809.8125,337
809.931274,332
810.050049,323
810.168884,317
810.287659,344
810.406372,328
810.525269,319
810.643982,329
810.762756,335
810.881531,328
811.000305,333
811.11908,329
811.237854,324
811.356567,327
811.475403,329
811.594116,318
811.71283,335
811.831604,335
811.950378,315
812.069153,342
812.187927,330
812.30658,326
812.425415,327
812.544128,327
812.662781,331
812.781616,343
812.900269,321
813.019043,315
813.137756,321
813.256531,334
813.375244,330
813.493896,334
813.612671,322
813.731384,315
813.850037,327
813.96875,327
814.087524,327
814.206238,313
814.324951,332
814.443604,337
814.562256,324
814.68103,332
814.799683,318
814.918335,344
815.037109,329
815.155762,336
815.274475,333
815.393188,311
815.511841,341
815.630554,333
815.749146,323
815.867859,335
815.986572,318
816.105164,324
816.223877,329
816.342529,339
816.461182,319
816.579895,344
816.698486,329
816.817139,325
816.935791,335
817.054504,330
817.173096,329
817.291748,334
817.4104,328
817.529053,331
817.647644,332
817.766235,337
817.884949,319
818.00354,330
818.122192,323
818.240845,327
818.359436,329
818.478088,317
818.59668,328
818.715271,309
818.833923,322
818.952515,314
819.071106,318
819.189758,347
819.30835,325
819.426941,322
819.545532,329
819.664124,322
819.782715,317
819.901306,333
820.019897,317
820.138489,315
820.25708,317
820.375671,326
820.494202,318
820.612732,321
820.731384,305
820.849915,315
820.968506,331
821.087097,325
821.205627,312
821.324158,332
821.442749,323
821.561279,325
821.679871,314
821.798401,329
821.916931,310
822.035461,326
822.154053,328
822.272583,321
822.391174,310
822.509583,311
822.628174,320
822.746704,321
822.865234,310
822.983765,328
823.102295,316
823.220825,314
823.339294,314
823.457825,316
823.576355,325
823.694824,314
823.813354,311
823.931885,310
824.050354,323
824.168884,304
824.287354,327
824.405823,320
824.524353,323
824.642822,313
824.761353,312
824.879822,319
824.998291,312
825.116699,324
825.235291,326
825.353699,320
825.472168,302
825.590637,330
825.709106,326
825.827576,310
825.946045,315
826.064453,321
826.182983,309
826.301392,325
826.4198,321
826.53833,321
826.656738,319
826.775208,311
826.893677,313
827.012024,319
827.130493,324
827.248962,312
827.36731,324
827.485779,321
827.604248,317
827.722595,323
827.841064,312
827.959412,314
828.077942,306
828.196289,322
828.314636,308
828.433105,324
828.551514,312
828.669861,328
828.78833,319
828.906677,324
829.025085,316
829.143433,318
829.261841,322
829.38031,319
829.498657,324
829.617004,336
829.735413,319
829.85376,315
829.972107,314
830.090515,320
830.208862,313
830.327209,320
830.445557,312
830.563904,303
830.682312,327
830.800659,315
830.919006,317
831.037354,317
831.155701,324
831.274048,309
831.392395,310
831.51062,303
831.629028,318
831.747314,312
831.865662,315
831.984009,310
832.102356,315
832.220642,325
832.338928,316
832.457275,316
832.575623,323
832.693909,318
832.812134,322
832.930481,320
833.048828,321
833.167114,312
833.2854,314
833.403687,304
833.521973,306
833.640259,320
833.758545,311
833.876831,315
833.995056,308
834.113281,317
834.231628,321
834.349915,309
834.468201,324
834.586426,319
834.704651,311
834.822998,317
834.941162,318
835.059448,309
835.177673,313
835.295959,325
835.414246,310
835.53241,328
835.650635,304
835.768921,333
835.887146,313
836.005371,311
836.123596,325
836.241821,308
836.360046,315
836.478271,306
836.596497,311
836.714722,324
836.832886,315
836.95105,325
837.069336,310
837.1875,319
837.305725,329
837.423889,318
837.542053,315
837.660339,321
837.778503,308
837.896667,332
838.014832,308
838.132996,304
838.25116,317
838.369385,323
838.487488,316
838.605713,318
838.723877,314
838.84198,317
838.960205,310
839.078308,323
839.196472,317
839.314636,325
839.4328,327
839.550964,324
839.669067,319
839.787231,330
839.905396,315
840.023499,318
840.141602,314
840.259766,318
840.377869,313
840.495972,315
840.614136,321
840.732239,309
840.850342,319
840.968445,316
841.086548,333
841.204651,319
841.322754,304
841.440918,327
841.55896,327
841.677002,305
841.795166,322
841.913208,318
842.031311,327
842.149353,323
842.267456,318
842.385498,321
842.503601,309
842.621643,332
842.739746,327
842.857788,322
842.97583,319
843.093933,328
843.211975,312
843.330017,322
843.44812,328
843.566101,323
843.684204,317
843.802246,318
843.920227,318
844.038269,315
844.156311,314
844.274292,332
844.392395,313
844.510376,324
844.628357,304
844.74646,320
844.864441,333
844.982422,309
845.100403,316
845.218384,339
845.336426,308
845.454468,320
845.572449,321
845.69043,317
845.808411,318
845.926453,320
846.044373,322
846.162354,313
846.280396,306
846.398315,314
846.516296,317
846.634216,320
846.752197,314
846.870178,323
846.988098,321
847.106079,318
847.22406,312
847.34198,318
847.4599,314
847.577881,319
847.695801,315
847.813782,315
847.931641,321
848.049561,304
848.167603,315
848.285461,321
848.403381,309
848.521362,321
848.639221,309
848.75708,329
848.875,311
848.99292,322
849.110901,330
849.22876,310
849.34668,304
849.464539,323
849.582458,313
849.700317,334
849.818176,317
849.936096,331
850.053955,303
850.171875,320
850.289673,306
850.407593,319
850.525452,310
850.643311,312
850.761169,310
850.878967,314
850.996887,314
851.114746,324
851.232544,320
851.350403,330
851.468262,318
851.58606,326
851.703979,328
851.821777,332
851.939636,314
852.057434,320
852.175232,322
852.293091,328
852.410889,318
852.528687,328
852.646545,323
852.764343,316
852.88208,302
852.999939,322
853.117676,309
853.235535,337
853.353271,309
853.471069,323
853.588928,322
853.706604,317
853.824402,315
853.9422,317
854.059998,303
854.177734,331
854.295532,317
854.413269,302
854.531006,316
854.648804,313
854.766541,326
854.884277,316
855.002014,322
855.119751,315
855.237549,323
855.355225,308
855.473022,318
855.590698,316
855.708435,309
855.826172,323
855.943848,318
856.061646,312
856.179321,326
856.296997,320
856.414795,323
856.53241,318
856.650085,306
856.767822,320
856.885559,317
857.003174,318
857.120911,318
857.238586,327
857.356201,317
857.473938,316
857.591614,320
857.709351,333
857.826965,323
857.944641,325
858.062317,300
858.179993,320
858.297668,310
858.415283,307
858.532959,328
858.650574,318
858.768188,319
858.885803,328
859.003479,333
859.121094,326
859.23877,315
859.356384,326
859.473999,321
859.591675,314
859.709229,321
859.826843,316
859.944458,323
860.062012,317
860.179626,313
860.297302,316
860.414856,305
860.532471,308
860.650024,329
860.767639,324
860.885193,319
861.002808,310
861.120361,327
861.237976,308
861.35553,322
861.473022,313
861.590698,315
861.708191,326
861.825745,300
861.943298,337
862.060852,325
862.178406,321
862.295959,323
862.413513,333
862.531006,322
862.64856,318
862.766113,320
862.883667,325
863.00116,322
863.118713,312
863.236206,327
863.353699,320
863.471252,318
863.588745,316
863.706177,316
863.82373,322
863.941162,308
864.058716,323
864.176208,315
864.29364,316
864.411194,321
864.528687,324
864.646118,323
864.763611,311
864.881042,325
864.998535,314
865.116028,309
865.233459,324
865.350891,306
865.468384,339
865.585754,315
865.703308,323
865.820679,314
865.938171,319
866.055542,331
866.173035,322
866.290466,311
866.407837,330
866.52533,318
866.6427,321
866.760071,321
866.877563,322
866.994934,328
867.112305,313
867.229736,306
867.347107,317
867.464539,310
867.58197,338
867.699341,301
867.81665,335
867.934082,317
868.051453,319
868.168823,308
868.286194,313
868.403564,318
868.520935,316
868.638306,307
868.755676,320
868.872986,312
868.990295,322
869.107727,315
869.225037,314
869.342346,328
869.459717,318
869.577026,309
869.694336,316
869.811707,309
869.929016,334
870.046326,311
870.163635,325
870.280945,319
870.398254,318
870.515564,316
870.632812,322
870.750183,320
870.867432,323
870.984741,315
871.102051,320
871.219299,318
871.336609,322
871.453918,306
871.571106,316
871.688416,329
871.805664,332
871.922852,325
872.040222,324
872.157471,303
872.274719,323
872.391968,322
872.509155,329
872.626465,316
872.743652,324
872.860962,317
872.978149,314
873.095337,306
873.212646,328
873.329834,307
873.44696,328
873.564209,307
873.681396,330
873.798645,324
873.915894,311
874.03302,318
874.150208,331
874.267456,309
874.384583,322
874.501831,314
874.618958,322
874.736145,321
874.853333,311
874.970459,319
875.087646,312
875.204834,325
875.32196,325
875.439148,315
875.556274,318
875.673401,323
875.790527,326
875.907715,310
876.024841,303
876.141968,323
876.259094,314
876.376282,329
876.493347,320
876.610474,324
876.7276,322
876.844727,309
876.961853,313
877.078918,310
877.195984,329
877.313171,321
877.430237,319
877.547302,316
877.664368,328
877.781433,327
877.898499,316
878.015625,320
878.13269,325
878.249695,308
878.366821,313
878.483887,332
878.600952,324
878.717957,322
878.834961,328
878.952087,319
879.069092,327
879.186157,309
879.303162,324
879.420227,307
879.537231,310
879.654236,321
879.77124,313
879.888306,313
880.005249,323
880.122314,313
880.239319,308
880.356323,306
880.473328,315
880.590271,323
880.707275,312
880.824341,326
880.941284,315
881.058228,316
881.175232,325
881.292236,299
881.40918,310
881.526123,313
881.643066,316
881.760071,312
881.877014,315
881.993958,319
882.11084,320
882.227783,331
882.344727,327
882.46167,308
882.578613,323
882.695618,302
882.812439,324
882.929382,318
883.046326,318
883.163208,324
883.280151,315
883.397034,321
883.513916,318
883.630798,315
883.747742,321
883.864563,317
883.981506,330
884.098389,318
884.21521,320
884.332153,326
884.448975,316
884.565796,327
884.682678,318
884.7995,319
884.916443,313
885.033264,316
885.150085,324
885.266968,325
885.383789,327
885.500671,318
885.617493,323
885.734314,334
885.851196,317
885.967896,315
886.084717,334
886.201599,337
886.318359,323
886.435181,326
886.552002,316
886.668762,312
886.785645,322
886.902344,325
887.019165,320
887.135925,318
887.252747,321
887.369446,320
887.486267,317
887.603027,317
887.719788,320
887.836548,325
887.953247,311
888.070068,330
888.186829,319
888.303528,318
888.420288,311
888.536987,320
888.653687,315
888.770447,324
888.887146,316
889.003967,317
889.120667,315
889.237305,318
889.354065,327
889.470703,310
889.587463,328
889.704163,315
889.820862,309
889.937561,313
890.054199,311
890.170837,322
890.287598,303
890.404236,310
890.520874,322
890.637634,312
890.754211,311
890.87085,318
890.987549,327
891.104187,314
891.220886,307
891.337463,323
891.454102,323
891.57074,314
891.687378,324
891.804077,318
891.920654,333
892.037231,306
892.15387,327
892.270447,309
892.387085,312
892.503723,310
892.6203,318
892.736877,319
892.853516,318
892.970032,314
893.08667,317
893.203186,322
893.319763,317
893.43634,322
893.552917,316
893.669556,316
893.786011,302
893.902588,320
894.019165,334
894.135681,323
894.252197,301
894.368835,327
894.485291,308
894.601868,328
894.718384,303
894.8349,327
894.951355,316
895.067932,319
895.184448,319
895.300964,323
895.417419,324
895.533936,313
895.650452,326
895.766907,309
895.883423,318
895.999878,306
896.116333,319
896.232849,316
896.349304,307
896.465759,313
896.582214,326
896.698669,317
896.815125,311
896.931641,327
897.048035,317
897.164551,310
897.280884,316
897.397339,327
897.513794,326
897.630249,316
897.746582,324
897.863098,320
897.979431,328
898.095886,319
898.212341,315
898.328674,314
898.445129,321
898.561462,319
898.677795,316
898.794312,311
898.910645,327
899.026978,329
899.143433,307
899.259766,322
899.37616,324
899.492493,320
899.608765,317
899.725159,326
899.841553,321
899.957947,312
900.07428,324
900.190552,313
900.306946,324
900.423157,325
900.53949,322
900.655884,319
900.772156,322
900.888489,315
901.004822,325
901.121033,311
901.237366,314
901.353699,317
901.46991,328
901.586304,318
901.702515,324
901.818787,327
901.93512,314
902.051331,317
902.167603,314
902.283875,324
902.400085,325
902.516418,312
902.632629,326
902.74884,327
902.865112,338
902.981384,325
903.097595,324
903.213867,336
903.330017,330
903.446289,323
903.5625,327
903.67865,306
903.794922,322
903.911072,308
904.027344,305
904.143494,321
904.259705,322
904.375916,325
904.492065,318
904.608215,318
904.724426,321
904.840576,322
904.956726,324
905.072876,312
905.189087,316
905.305176,316
905.421387,313
905.537537,330
905.653687,324
905.769775,317
905.885925,332
906.002014,312
906.118164,321
906.234314,308
906.350403,313
906.466492,314
906.582642,327
906.69873,326
906.814758,318
906.930908,317
907.046936,318
907.163086,311
907.279175,324
907.395264,311
907.511353,321
907.62738,314
907.743408,309
907.859497,319
907.975525,314
908.091553,311
908.207703,305
908.32373,294
908.439758,315
908.555786,328
908.671814,316
908.787842,316
908.90387,312
909.019775,311
909.135864,326
909.251892,316
909.367859,321
909.483826,314
909.599854,324
909.715881,308
909.831848,318
909.947815,329
910.063782,325
910.179749,321
910.295776,315
910.411743,320
910.527649,320
910.643616,318
910.759583,306
910.875488,311
910.991455,315
911.107361,308
911.223267,319
911.339294,335
911.4552,316
911.571106,319
911.687073,313
911.802979,311
911.918823,327
912.034729,306
912.150635,317
912.266602,308
912.382446,304
912.498352,325
912.614197,306
912.730103,316
912.846008,306
