792.44574,325
792.56488,363
792.68396,417
792.80304,404
792.92218,368
793.041199,344
793.160339,352
793.279419,342
793.398499,346
793.517578,331
793.636658,339
793.755737,335
793.874817,360
793.993896,364
794.112976,351
794.232056,326
794.351074,329
794.470215,339
794.589233,345
794.708313,330
794.827393,342
794.946411,338
795.065552,356
795.18457,355
795.303589,332
795.422668,342
795.541687,346
795.660767,336
795.779846,341
795.898865,330
796.017883,332
796.136963,329
796.255981,351
796.375061,325
796.49408,322
796.613037,336
796.732117,339
796.851135,331
796.970154,327
797.089233,332
797.208191,336
797.327271,332
797.446228,319
797.565186,345
797.684265,330
797.803223,334
797.922241,329
798.04126,319
798.160278,330
798.279297,332
798.398315,328
798.517273,338
798.636292,329
798.75531,333
798.874268,334
798.993286,338
799.112244,331
799.231323,325
799.350281,332
799.469238,320
799.588257,332
799.707153,327
799.826111,325
799.945129,333
800.064087,328
800.183044,312
800.302063,332
800.421021,314
800.539978,336
800.658936,325
800.777893,330
800.896912,329
801.015747,325
801.134705,336
801.253723,327
801.37262,320
801.491638,332
801.610535,329
801.729492,312
801.84845,326
801.967407,328
802.086243,310
802.205261,327
802.324158,332
802.443115,325
802.562073,324
802.680969,329
802.799927,319
802.918762,331
803.037659,315
803.156677,340
803.275574,324
803.39447,324
803.513428,319
803.632263,333
803.751221,337
803.870117,339
803.989014,336
804.107971,331
804.226746,319
804.345642,335
804.4646,330
804.583496,325
804.702393,321
804.821228,336
804.940125,314
805.059021,325
805.177917,325
805.296814,329
805.415649,328
805.534546,324
805.653442,327
805.772278,324
805.891113,326
806.01001,324
806.128906,309
806.247742,331
806.366577,317
806.485413,347
806.604309,317
806.723145,323
806.84198,332
806.960876,330
807.079712,329
807.198486,330
807.317383,331
807.436218,324
807.554993,336
807.673889,334
807.792725,322
807.91156,328
808.030396,332
808.14917,322
808.268005,319
808.386841,342
808.505676,315
808.624451,323
808.743286,322
808.862122,331
808.980896,323
809.099731,335
809.218506,327
809.337341,324
809.456116,322
809.57489,316
809.693726,323
809.8125,319
809.931274,332
810.050049,327
810.168884,329
810.287659,330
810.406372,318
810.525269,331
810.643982,321
810.762756,329
810.881531,326
811.000305,310
811.11908,329
811.237854,324
811.356567,332
811.475403,325
811.594116,322
811.71283,334
811.831604,320
811.950378,319
812.069153,318
812.187927,332
812.30658,322
812.425415,324
812.544128,317
812.662781,322
812.781616,324
812.900269,333
813.019043,328
813.137756,328
813.256531,311
813.375244,325
813.493896,316
813.612671,330
813.731384,320
813.850037,332
813.96875,310
814.087524,328
814.206238,332
814.324951,311
814.443604,319
814.562256,323
814.68103,318
814.799683,337
814.918335,317
815.037109,334
815.155762,322
815.274475,320
815.393188,338
815.511841,328
815.630554,308
815.749146,321
815.867859,313
815.986572,319
816.105164,310
816.223877,312
816.342529,311
816.461182,321
816.579895,323
816.698486,316
816.817139,322
816.935791,325
817.054504,326
817.173096,316
817.291748,321
817.4104,332
817.529053,331
817.647644,330
817.766235,309
817.884949,319
818.00354,325
818.122192,332
818.240845,328
818.359436,320
818.478088,327
818.59668,341
818.715271,302
818.833923,332
818.952515,319
819.071106,324
819.189758,316
819.30835,320
819.426941,312
819.545532,332
819.664124,317
819.782715,328
819.901306,324
820.019897,315
820.138489,324
820.25708,325
820.375671,333
820.494202,318
820.612732,314
820.731384,339
820.849915,327
820.968506,319
821.087097,324
821.205627,322
821.324158,317
821.442749,328
821.561279,314
821.679871,320
821.798401,321
821.916931,313
822.035461,328
822.154053,316
822.272583,317
822.391174,329
822.509583,314
822.628174,323
822.746704,330
822.865234,314
822.983765,307
823.102295,310
823.220825,319
823.339294,332
823.457825,312
823.576355,329
823.694824,324
823.813354,315
823.931885,316
824.050354,313
824.168884,318
824.287354,322
824.405823,315
824.524353,322
824.642822,318
824.761353,322
824.879822,326
824.998291,318
825.116699,325
825.235291,310
825.353699,307
825.472168,314
825.590637,330
825.709106,327
825.827576,314
825.946045,311
826.064453,316
826.182983,317
826.301392,318
826.4198,323
826.53833,321
826.656738,321
826.775208,310
826.893677,317
827.012024,322
827.130493,318
827.248962,318
827.36731,323
827.485779,320
827.604248,314
827.722595,300
827.841064,318
827.959412,316
828.077942,323
828.196289,306
828.314636,332
828.433105,318
828.551514,318
828.669861,325
828.78833,319
828.906677,310
829.025085,328
829.143433,313
829.261841,328
829.38031,323
829.498657,315
829.617004,301
829.735413,318
829.85376,327
829.972107,308
830.090515,298
830.208862,323
830.327209,304
830.445557,319
830.563904,312
830.682312,318
830.800659,312
830.919006,313
831.037354,319
831.155701,326
831.274048,317
831.392395,317
831.51062,329
831.629028,301
831.747314,316
831.865662,333
831.984009,305
832.102356,323
832.220642,318
832.338928,314
832.457275,326
832.575623,324
832.693909,312
832.812134,322
832.930481,320
833.048828,308
833.167114,308
833.2854,318
833.403687,319
833.521973,320
833.640259,309
833.758545,331
833.876831,319
833.995056,325
834.113281,314
834.231628,326
834.349915,312
834.468201,316
834.586426,328
834.704651,318
834.822998,327
834.941162,322
835.059448,325
835.177673,337
835.295959,320
835.414246,328
835.53241,326
835.650635,323
835.768921,317
835.887146,325
836.005371,320
836.123596,308
836.241821,310
836.360046,324
836.478271,316
836.596497,329
836.714722,310
836.832886,321
836.95105,313
837.069336,327
837.1875,322
837.305725,301
837.423889,323
837.542053,329
837.660339,312
837.778503,324
837.896667,325
838.014832,315
838.132996,321
838.25116,322
838.369385,329
838.487488,322
838.605713,319
838.723877,329
838.84198,319
838.960205,328
839.078308,310
839.196472,327
839.314636,319
839.4328,321
839.550964,319
839.669067,309
839.787231,316
839.905396,321
840.023499,325
840.141602,319
840.259766,330
840.377869,320
840.495972,299
840.614136,322
840.732239,319
840.850342,329
840.968445,314
841.086548,314
841.204651,318
841.322754,329
841.440918,306
841.55896,313
841.677002,320
841.795166,328
841.913208,316
842.031311,327
842.149353,303
842.267456,322
842.385498,318
842.503601,337
842.621643,324
842.739746,326
842.857788,322
842.97583,316
843.093933,323
843.211975,318
843.330017,324
843.44812,331
843.566101,310
843.684204,325
843.802246,321
843.920227,330
844.038269,336
844.156311,317
844.274292,325
844.392395,323
844.510376,320
844.628357,321
844.74646,314
844.864441,317
844.982422,312
845.100403,322
845.218384,318
845.336426,327
845.454468,324
845.572449,320
845.69043,333
845.808411,322
845.926453,313
846.044373,322
846.162354,311
846.280396,312
846.398315,305
846.516296,322
846.634216,317
846.752197,326
846.870178,315
846.988098,325
847.106079,318
847.22406,330
847.34198,318
847.4599,319
847.577881,332
847.695801,317
847.813782,316
847.931641,329
848.049561,309
848.167603,322
848.285461,313
848.403381,315
848.521362,324
848.639221,319
848.75708,307
848.875,325
848.99292,325
849.110901,335
849.22876,317
849.34668,331
849.464539,319
849.582458,315
849.700317,309
849.818176,321
849.936096,318
850.053955,326
850.171875,317
850.289673,318
850.407593,326
850.525452,330
850.643311,324
850.761169,326
850.878967,331
850.996887,324
851.114746,313
851.232544,313
851.350403,324
851.468262,325
851.58606,312
851.703979,319
851.821777,300
851.939636,330
852.057434,325
852.175232,320
852.293091,319
852.410889,323
852.528687,316
852.646545,348
852.764343,316
852.88208,335
852.999939,313
853.117676,321
853.235535,314
853.353271,317
853.471069,313
853.588928,321
853.706604,320
853.824402,321
853.9422,324
854.059998,319
854.177734,318
854.295532,320
854.413269,317
854.531006,325
854.648804,329
854.766541,309
854.884277,326
855.002014,327
855.119751,311
855.237549,318
855.355225,317
855.473022,313
855.590698,315
855.708435,327
855.826172,319
855.943848,321
856.061646,325
856.179321,332
856.296997,311
856.414795,327
856.53241,320
856.650085,323
856.767822,321
856.885559,326
857.003174,316
857.120911,338
857.238586,334
857.356201,330
857.473938,320
857.591614,325
857.709351,316
857.826965,320
857.944641,316
858.062317,315
858.179993,308
858.297668,314
858.415283,314
858.532959,327
858.650574,327
858.768188,329
858.885803,324
859.003479,325
859.121094,321
859.23877,317
859.356384,307
859.473999,321
859.591675,318
859.709229,330
859.826843,325
859.944458,324
860.062012,305
860.179626,334
860.297302,307
860.414856,327
860.532471,327
860.650024,342
860.767639,310
860.885193,323
861.002808,308
861.120361,314
861.237976,324
861.35553,321
861.473022,315
861.590698,313
861.708191,326
861.825745,321
861.943298,312
862.060852,326
862.178406,311
862.295959,328
862.413513,309
862.531006,326
862.64856,328
862.766113,314
862.883667,319
863.00116,330
863.118713,316
863.236206,323
863.353699,301
863.471252,324
863.588745,318
863.706177,330
863.82373,325
863.941162,325
864.058716,320
864.176208,316
864.29364,315
864.411194,329
864.528687,307
864.646118,318
864.763611,317
864.881042,322
864.998535,322
865.116028,322
865.233459,305
865.350891,323
865.468384,314
865.585754,328
865.703308,311
865.820679,322
865.938171,308
866.055542,319
866.173035,326
866.290466,324
866.407837,312
866.52533,321
866.6427,325
866.760071,318
866.877563,321
866.994934,328
867.112305,302
867.229736,329
867.347107,308
867.464539,324
867.58197,335
867.699341,330
867.81665,314
867.934082,323
868.051453,300
868.168823,340
868.286194,309
868.403564,315
868.520935,332
868.638306,333
868.755676,319
868.872986,330
868.990295,318
869.107727,324
869.225037,318
869.342346,327
869.459717,318
869.577026,317
869.694336,332
869.811707,315
869.929016,313
870.046326,315
870.163635,322
870.280945,331
870.398254,322
870.515564,313
870.632812,327
870.750183,342
870.867432,323
870.984741,315
871.102051,339
871.219299,326
871.336609,307
871.453918,315
871.571106,314
871.688416,313
871.805664,313
871.922852,329
872.040222,325
872.157471,333
872.274719,330
872.391968,324
872.509155,326
872.626465,335
872.743652,314
872.860962,324
872.978149,319
873.095337,324
873.212646,318
873.329834,324
873.44696,319
873.564209,323
873.681396,325
873.798645,322
873.915894,325
874.03302,336
874.150208,305
874.267456,332
874.384583,321
874.501831,325
874.618958,322
874.736145,327
874.853333,330
874.970459,310
875.087646,313
875.204834,330
875.32196,314
875.439148,328
875.556274,320
875.673401,312
875.790527,316
875.907715,331
876.024841,326
876.141968,320
876.259094,317
876.376282,320
876.493347,312
876.610474,331
876.7276,320
876.844727,326
876.961853,317
877.078918,320
877.195984,326
877.313171,331
877.430237,306
877.547302,325
877.664368,310
877.781433,318
877.898499,324
878.015625,314
878.13269,331
878.249695,321
878.366821,317
878.483887,320
878.600952,305
878.717957,325
878.834961,311
878.952087,332
879.069092,313
879.186157,314
879.303162,309
879.420227,320
879.537231,318
879.654236,334
879.77124,311
879.888306,321
880.005249,317
880.122314,326
880.239319,326
880.356323,328
880.473328,319
880.590271,318
880.707275,321
880.824341,326
880.941284,328
881.058228,326
881.175232,305
881.292236,328
881.40918,332
881.526123,314
881.643066,318
881.760071,321
881.877014,317
881.993958,323
882.11084,312
882.227783,313
882.344727,319
882.46167,313
882.578613,316
882.695618,306
882.812439,313
882.929382,325
883.046326,329
883.163208,300
883.280151,317
883.397034,320
883.513916,321
883.630798,327
883.747742,326
883.864563,331
883.981506,320
884.098389,320
884.21521,330
884.332153,317
884.448975,331
884.565796,318
884.682678,312
884.7995,323
884.916443,316
885.033264,316
885.150085,329
885.266968,327
885.383789,337
885.500671,321
885.617493,327
885.734314,326
885.851196,320
885.967896,325
886.084717,315
886.201599,335
886.318359,320
886.435181,325
886.552002,317
886.668762,323
886.785645,324
886.902344,341
887.019165,318
887.135925,323
887.252747,339
887.369446,316
887.486267,315
887.603027,327
887.719788,320
887.836548,319
887.953247,306
888.070068,330
888.186829,306
888.303528,332
888.420288,324
888.536987,321
888.653687,318
888.770447,315
888.887146,329
889.003967,331
889.120667,319
889.237305,331
889.354065,302
889.470703,324
889.587463,320
889.704163,326
889.820862,318
889.937561,316
890.054199,332
890.170837,318
890.287598,328
890.404236,326
890.520874,313
890.637634,320
890.754211,320
890.87085,320
890.987549,318
891.104187,311
891.220886,320
891.337463,328
891.454102,316
891.57074,320
891.687378,322
891.804077,323
891.920654,311
892.037231,319
892.15387,313
892.270447,316
892.387085,314
892.503723,325
892.6203,307
892.736877,317
892.853516,314
892.970032,306
893.08667,320
893.203186,312
893.319763,318
893.43634,318
893.552917,320
893.669556,326
893.786011,323
893.902588,317
894.019165,335
894.135681,325
894.252197,315
894.368835,319
894.485291,315
894.601868,311
894.718384,317
894.8349,315
894.951355,308
895.067932,328
895.184448,320
895.300964,313
895.417419,303
895.533936,324
895.650452,307
895.766907,320
895.883423,314
895.999878,316
896.116333,315
896.232849,325
896.349304,315
896.465759,324
896.582214,307
896.698669,313
896.815125,310
896.931641,327
897.048035,303
897.164551,321
897.280884,306
897.397339,322
897.513794,330
897.630249,319
897.746582,308
897.863098,318
897.979431,323
898.095886,327
898.212341,317
898.328674,323
898.445129,311
898.561462,323
898.677795,316
898.794312,327
898.910645,315
899.026978,316
899.143433,318
899.259766,320
899.37616,323
899.492493,319
899.608765,322
899.725159,313
899.841553,317
899.957947,327
900.07428,321
900.190552,324
900.306946,303
900.423157,318
900.53949,325
900.655884,327
900.772156,318
900.888489,326
901.004822,327
901.121033,328
901.237366,322
901.353699,335
901.46991,313
901.586304,317
901.702515,315
901.818787,330
901.93512,319
902.051331,321
902.167603,325
902.283875,323
902.400085,319
902.516418,319
902.632629,319
902.74884,314
902.865112,307
902.981384,319
903.097595,317
903.213867,315
903.330017,320
903.446289,312
903.5625,328
903.67865,302
903.794922,323
903.911072,338
904.027344,322
904.143494,323
904.259705,321
904.375916,315
904.492065,315
904.608215,315
904.724426,328
904.840576,320
904.956726,311
905.072876,319
905.189087,317
905.305176,325
905.421387,320
905.537537,326
905.653687,311
905.769775,316
905.885925,310
906.002014,316
906.118164,320
906.234314,328
906.350403,328
906.466492,317
906.582642,312
906.69873,316
906.814758,306
906.930908,341
907.046936,316
907.163086,335
907.279175,312
907.395264,317
907.511353,325
907.62738,321
907.743408,318
907.859497,328
907.975525,322
908.091553,337
908.207703,320
908.32373,322
908.439758,322
908.555786,330
908.671814,328
908.787842,327
908.90387,312
909.019775,328
909.135864,317
909.251892,334
909.367859,319
909.483826,317
909.599854,311
909.715881,322
909.831848,329
909.947815,321
910.063782,309
910.179749,322
910.295776,320
910.411743,340
910.527649,318
910.643616,323
910.759583,321
910.875488,325
910.991455,325
911.107361,314
911.223267,311
911.339294,323
911.4552,320
911.571106,317
911.687073,313
911.802979,323
911.918823,326
912.034729,313
912.150635,318
912.266602,327
912.382446,318
912.498352,317
912.614197,318
912.730103,325
912.846008,316
792.44574,336
792.56488,365
792.68396,418
792.80304,394
792.92218,352
793.041199,335
793.160339,322
793.279419,363
793.398499,342
793.517578,333
793.636658,340
793.755737,349
793.874817,351
793.993896,361
794.112976,339
794.232056,337
794.351074,332
794.470215,347
794.589233,333
794.708313,326
794.827393,346
794.946411,336
795.065552,336
795.18457,340
795.303589,333
795.422668,328
795.541687,339
795.660767,345
795.779846,340
795.898865,344
796.017883,333
796.136963,324
796.255981,340
796.375061,337
796.49408,336
796.613037,331
796.732117,330
796.851135,340
796.970154,330
797.089233,340
797.208191,328
797.327271,324
797.446228,327
797.565186,344
797.684265,337
797.803223,340
797.922241,319
798.04126,329
798.160278,328
798.279297,341
798.398315,338
798.517273,324
798.636292,337
798.75531,329
798.874268,326
798.993286,331
799.112244,325
799.231323,327
799.350281,325
799.469238,329
799.588257,334
799.707153,330
799.826111,321
799.945129,311
800.064087,333
800.183044,334
800.302063,322
800.421021,331
800.539978,323
800.658936,321
800.777893,334
800.896912,327
801.015747,323
801.134705,323
801.253723,331
801.37262,322
801.491638,340
801.610535,323
801.729492,317
801.84845,322
801.967407,328
802.086243,312
802.205261,333
802.324158,315
802.443115,318
802.562073,329
802.680969,325
802.799927,326
802.918762,322
803.037659,324
803.156677,319
803.275574,328
803.39447,331
803.513428,332
803.632263,327
803.751221,329
803.870117,336
803.989014,316
804.107971,325
804.226746,320
804.345642,319
804.4646,319
804.583496,322
804.702393,315
804.821228,318
804.940125,326
805.059021,318
805.177917,329
805.296814,326
805.415649,317
805.534546,325
805.653442,337
805.772278,329
805.891113,321
806.01001,324
806.128906,305
806.247742,313
806.366577,327
806.485413,329
806.604309,331
806.723145,319
806.84198,328
806.960876,330
807.079712,331
807.198486,321
807.317383,326
807.436218,326
807.554993,312
807.673889,326
807.792725,331
807.91156,307
808.030396,318
808.14917,334
808.268005,330
808.386841,323
808.505676,333
808.624451,326
808.743286,330
808.862122,328
808.980896,322
809.099731,323
809.218506,326
809.337341,309
809.456116,320
809.57489,324
809.693726,335
809.8125,317
809.931274,326
810.050049,334
810.168884,318
810.287659,320
810.406372,326
810.525269,328
810.643982,331
810.762756,318
810.881531,322
811.000305,325
811.11908,326
811.237854,318
811.356567,326
811.475403,326
811.594116,324
811.71283,325
811.831604,330
811.950378,310
812.069153,319
812.187927,311
812.30658,325
812.425415,320
812.544128,318
812.662781,320
812.781616,312
812.900269,327
813.019043,325
813.137756,325
813.256531,321
813.375244,329
813.493896,318
813.612671,324
813.731384,324
813.850037,320
813.96875,325
814.087524,332
814.206238,333
814.324951,326
814.443604,331
814.562256,313
814.68103,330
814.799683,331
814.918335,330
815.037109,342
815.155762,317
815.274475,324
815.393188,312
815.511841,324
815.630554,315
815.749146,329
815.867859,321
815.986572,316
816.105164,312
816.223877,322
816.342529,317
816.461182,320
816.579895,319
816.698486,331
816.817139,338
816.935791,321
817.054504,328
817.173096,305
817.291748,323
817.4104,316
817.529053,325
817.647644,322
817.766235,335
817.884949,328
818.00354,322
818.122192,321
818.240845,314
818.359436,319
818.478088,330
818.59668,323
818.715271,325
818.833923,321
818.952515,314
819.071106,308
819.189758,333
819.30835,325
819.426941,322
819.545532,319
819.664124,329
819.782715,320
819.901306,326
820.019897,322
820.138489,343
820.25708,304
820.375671,325
820.494202,333
820.612732,319
820.731384,314
820.849915,331
820.968506,315
821.087097,323
821.205627,325
821.324158,321
821.442749,319
821.561279,317
821.679871,314
821.798401,323
821.916931,318
822.035461,322
822.154053,319
822.272583,314
822.391174,312
822.509583,318
822.628174,320
822.746704,312
822.865234,312
822.983765,323
823.102295,308
823.220825,328
823.339294,324
823.457825,333
823.576355,307
823.694824,317
823.813354,327
823.931885,311
824.050354,317
824.168884,323
824.287354,314
824.405823,318
824.524353,306
824.642822,325
824.761353,320
824.879822,317
824.998291,323
825.116699,332
825.235291,304
825.353699,315
825.472168,320
825.590637,304
825.709106,312
825.827576,338
825.946045,327
826.064453,312
826.182983,327
826.301392,319
826.4198,318
826.53833,320
826.656738,322
826.775208,321
826.893677,311
827.012024,319
827.130493,309
827.248962,317
827.36731,326
827.485779,315
827.604248,327
827.722595,321
827.841064,326
827.959412,316
828.077942,313
828.196289,327
828.314636,313
828.433105,321
828.551514,314
828.669861,321
828.78833,330
828.906677,330
829.025085,320
829.143433,318
829.261841,313
829.38031,322
829.498657,322
829.617004,320
829.735413,315
829.85376,316
829.972107,312
830.090515,324
830.208862,322
830.327209,325
830.445557,305
830.563904,320
830.682312,313
830.800659,309
830.919006,320
831.037354,304
831.155701,312
831.274048,322
831.392395,328
831.51062,332
831.629028,315
831.747314,319
831.865662,312
831.984009,316
832.102356,317
832.220642,309
832.338928,313
832.457275,325
832.575623,314
832.693909,314
832.812134,306
832.930481,313
833.048828,307
833.167114,330
833.2854,329
833.403687,317
833.521973,313
833.640259,316
833.758545,310
833.876831,324
833.995056,307
834.113281,321
834.231628,312
834.349915,320
834.468201,325
834.586426,327
834.704651,327
834.822998,328
834.941162,312
835.059448,318
835.177673,305
835.295959,335
835.414246,320
835.53241,318
835.650635,328
835.768921,325
835.887146,324
836.005371,317
836.123596,311
836.241821,305
836.360046,324
836.478271,320
836.596497,304
836.714722,319
836.832886,316
836.95105,323
837.069336,321
837.1875,321
837.305725,330
837.423889,319
837.542053,313
837.660339,319
837.778503,321
837.896667,331
838.014832,315
838.132996,302
838.25116,317
838.369385,326
838.487488,313
838.605713,320
838.723877,326
838.84198,321
838.960205,324
839.078308,319
839.196472,320
839.314636,326
839.4328,308
839.550964,321
839.669067,314
839.787231,319
839.905396,316
840.023499,324
840.141602,307
840.259766,313
840.377869,324
840.495972,320
840.614136,305
840.732239,322
840.850342,302
840.968445,314
841.086548,321
841.204651,311
841.322754,327
841.440918,335
841.55896,327
841.677002,309
841.795166,319
841.913208,319
842.031311,318
842.149353,323
842.267456,319
842.385498,323
842.503601,329
842.621643,323
842.739746,314
842.857788,315
842.97583,321
843.093933,321
843.211975,318
843.330017,337
843.44812,314
843.566101,339
843.684204,306
843.802246,322
843.920227,314
844.038269,328
844.156311,314
844.274292,328
844.392395,314
844.510376,325
844.628357,331
844.74646,312
844.864441,317
844.982422,334
845.100403,329
845.218384,312
845.336426,317
845.454468,319
845.572449,321
845.69043,307
845.808411,328
845.926453,325
846.044373,321
846.162354,318
846.280396,303
846.398315,309
846.516296,324
846.634216,317
846.752197,313
846.870178,317
846.988098,327
847.106079,312
847.22406,325
847.34198,320
847.4599,326
847.577881,324
847.695801,325
847.813782,321
847.931641,316
848.049561,313
848.167603,311
848.285461,321
848.403381,316
848.521362,310
848.639221,320
848.75708,317
848.875,316
848.99292,327
849.110901,324
849.22876,316
849.34668,305
849.464539,317
849.582458,317
849.700317,324
849.818176,314
849.936096,323
850.053955,322
850.171875,312
850.289673,318
850.407593,332
850.525452,324
850.643311,308
850.761169,327
850.878967,312
850.996887,325
851.114746,320
851.232544,303
851.350403,311
851.468262,328
851.58606,331
851.703979,306
851.821777,325
851.939636,315
852.057434,312
852.175232,315
852.293091,321
852.410889,327
852.528687,314
852.646545,320
852.764343,323
852.88208,328
852.999939,322
853.117676,307
853.235535,332
853.353271,316
853.471069,322
853.588928,312
853.706604,306
853.824402,306
853.9422,320
854.059998,321
854.177734,326
854.295532,328
854.413269,321
854.531006,320
854.648804,314
854.766541,313
854.884277,312
855.002014,325
855.119751,317
855.237549,320
855.355225,331
855.473022,313
855.590698,331
855.708435,319
855.826172,315
855.943848,331
856.061646,322
856.179321,316
856.296997,330
856.414795,307
856.53241,319
856.650085,319
856.767822,314
856.885559,324
857.003174,308
857.120911,314
857.238586,324
857.356201,321
857.473938,344
857.591614,317
857.709351,311
857.826965,322
857.944641,310
858.062317,332
858.179993,313
858.297668,312
858.415283,318
858.532959,313
858.650574,307
858.768188,331
858.885803,331
859.003479,304
859.121094,308
859.23877,319
859.356384,334
859.473999,335
859.591675,315
859.709229,330
859.826843,324
859.944458,319
860.062012,327
860.179626,327
860.297302,313
860.414856,319
860.532471,321
860.650024,331
860.767639,317
860.885193,318
861.002808,315
861.120361,319
861.237976,323
861.35553,310
861.473022,328
861.590698,307
861.708191,325
861.825745,330
861.943298,315
862.060852,316
862.178406,325
862.295959,311
862.413513,328
862.531006,312
862.64856,321
862.766113,331
862.883667,323
863.00116,323
863.118713,305
863.236206,318
863.353699,316
863.471252,318
863.588745,316
863.706177,320
863.82373,316
863.941162,320
864.058716,321
864.176208,313
864.29364,351
864.411194,325
864.528687,324
864.646118,313
864.763611,316
864.881042,323
864.998535,328
865.116028,313
865.233459,306
865.350891,312
865.468384,329
865.585754,302
865.703308,319
865.820679,319
865.938171,325
866.055542,318
866.173035,307
866.290466,318
866.407837,315
866.52533,314
866.6427,313
866.760071,313
866.877563,326
866.994934,324
867.112305,314
867.229736,314
867.347107,326
867.464539,310
867.58197,321
867.699341,327
867.81665,308
867.934082,313
868.051453,337
868.168823,324
868.286194,332
868.403564,312
868.520935,320
868.638306,304
868.755676,310
868.872986,320
868.990295,317
869.107727,306
869.225037,316
869.342346,316
869.459717,326
869.577026,323
869.694336,308
869.811707,320
869.929016,322
870.046326,328
870.163635,326
870.280945,314
870.398254,331
870.515564,326
870.632812,329
870.750183,306
870.867432,322
870.984741,313
871.102051,315
871.219299,322
871.336609,309
871.453918,322
871.571106,332
871.688416,324
871.805664,316
871.922852,327
872.040222,323
872.157471,319
872.274719,319
872.391968,322
872.509155,331
872.626465,312
872.743652,320
872.860962,321
872.978149,334
873.095337,328
873.212646,322
873.329834,318
873.44696,323
873.564209,330
873.681396,307
873.798645,309
873.915894,322
874.03302,313
874.150208,329
874.267456,316
874.384583,314
874.501831,325
874.618958,326
874.736145,328
874.853333,330
874.970459,322
875.087646,320
875.204834,308
875.32196,328
875.439148,331
875.556274,321
875.673401,300
875.790527,307
875.907715,322
876.024841,325
876.141968,309
876.259094,305
876.376282,328
876.493347,325
876.610474,313
876.7276,311
876.844727,313
876.961853,324
877.078918,326
877.195984,327
877.313171,318
877.430237,315
877.547302,318
877.664368,313
877.781433,326
877.898499,333
878.015625,315
878.13269,332
878.249695,312
878.366821,324
878.483887,324
878.600952,317
878.717957,325
878.834961,330
878.952087,323
879.069092,316
879.186157,327
879.303162,314
879.420227,313
879.537231,326
879.654236,305
879.77124,327
879.888306,313
880.005249,320
880.122314,312
880.239319,321
880.356323,317
880.473328,311
880.590271,314
880.707275,314
880.824341,334
880.941284,296
881.058228,319
881.175232,323
881.292236,332
881.40918,331
881.526123,312
881.643066,337
881.760071,324
881.877014,314
881.993958,322
882.11084,322
882.227783,327
882.344727,315
882.46167,319
882.578613,323
882.695618,324
882.812439,325
882.929382,324
883.046326,319
883.163208,320
883.280151,319
883.397034,317
883.513916,331
883.630798,312
883.747742,315
883.864563,315
883.981506,307
884.098389,318
884.21521,320
884.332153,321
884.448975,322
884.565796,301
884.682678,317
884.7995,331
884.916443,318
885.033264,332
885.150085,326
885.266968,326
885.383789,331
885.500671,318
885.617493,330
885.734314,319
885.851196,328
885.967896,327
886.084717,329
886.201599,327
886.318359,338
886.435181,329
886.552002,322
886.668762,314
886.785645,328
886.902344,312
887.019165,326
887.135925,317
887.252747,327
887.369446,326
887.486267,318
887.603027,324
887.719788,320
887.836548,326
887.953247,323
888.070068,315
888.186829,337
888.303528,312
888.420288,315
888.536987,323
888.653687,325
888.770447,313
888.887146,328
889.003967,313
889.120667,314
889.237305,306
889.354065,316
889.470703,318
889.587463,326
889.704163,302
889.820862,317
889.937561,313
890.054199,309
890.170837,319
890.287598,311
890.404236,315
890.520874,318
890.637634,307
890.754211,313
890.87085,319
890.987549,318
891.104187,318
891.220886,316
891.337463,332
891.454102,333
891.57074,301
891.687378,323
891.804077,316
891.920654,320
892.037231,304
892.15387,317
892.270447,309
892.387085,323
892.503723,304
892.6203,327
892.736877,312
892.853516,328
892.970032,312
893.08667,310
893.203186,313
893.319763,327
893.43634,318
893.552917,316
893.669556,327
893.786011,336
893.902588,313
894.019165,324
894.135681,318
894.252197,330
894.368835,322
894.485291,325
894.601868,327
894.718384,319
894.8349,318
894.951355,314
895.067932,321
895.184448,320
895.300964,328
895.417419,308
895.533936,325
895.650452,310
895.766907,317
895.883423,333
895.999878,316
896.116333,323
896.232849,303
896.349304,321
896.465759,328
896.582214,320
896.698669,322
896.815125,318
896.931641,325
897.048035,325
897.164551,298
897.280884,322
897.397339,311
897.513794,328
897.630249,299
897.746582,325
897.863098,321
897.979431,318
898.095886,320
898.212341,307
898.328674,313
898.445129,318
898.561462,311
898.677795,318
898.794312,319
898.910645,315
899.026978,313
899.143433,323
899.259766,320
899.37616,322
899.492493,315
899.608765,315
899.725159,329
899.841553,317
899.957947,310
900.07428,322
900.190552,318
900.306946,313
900.423157,327
900.53949,320
900.655884,335
900.772156,328
900.888489,302
901.004822,323
901.121033,324
901.237366,319
901.353699,316
901.46991,316
901.586304,310
901.702515,330
901.818787,308
901.93512,318
902.051331,312
902.167603,326
902.283875,320
902.400085,324
902.516418,327
902.632629,328
902.74884,319
902.865112,326
902.981384,315
903.097595,334
903.213867,303
903.330017,328
903.446289,312
903.5625,321
903.67865,325
903.794922,315
903.911072,318
904.027344,319
904.143494,302
904.259705,324
904.375916,318
904.492065,320
904.608215,318
904.724426,322
904.840576,319
904.956726,322
905.072876,319
905.189087,329
905.305176,327
905.421387,329
905.537537,333
905.653687,310
905.769775,326
905.885925,324
906.002014,328
906.118164,322
906.234314,318
906.350403,316
906.466492,322
906.582642,317
906.69873,309
906.814758,318
906.930908,329
907.046936,309
907.163086,331
907.279175,340
907.395264,323
907.511353,321
907.62738,315
907.743408,328
907.859497,313
907.975525,312
908.091553,319
908.207703,311
908.32373,319
908.439758,321
908.555786,325
908.671814,318
908.787842,323
908.90387,327
909.019775,306
909.135864,323
909.251892,326
909.367859,316
909.483826,318
909.599854,314
909.715881,320
909.831848,316
909.947815,309
910.063782,324
910.179749,318
910.295776,312
910.411743,324
910.527649,316
910.643616,313
910.759583,325
910.875488,317
910.991455,321
911.107361,312
911.223267,320
911.339294,312
911.4552,322
911.571106,332
911.687073,319
911.802979,311
911.918823,311
912.034729,323
912.150635,328
912.266602,319
912.382446,320
912.498352,302
912.614197,326
912.730103,326
912.846008,322
792.44574,331
792.56488,379
792.68396,411
792.80304,399
792.92218,351
793.041199,336
793.160339,330
793.279419,344
793.398499,347
793.517578,329
793.636658,332
793.755737,350
793.874817,349
793.993896,341
794.112976,340
794.232056,336
794.351074,342
794.470215,331
794.589233,337
794.708313,348
794.827393,336
794.946411,338
795.065552,339
795.18457,332
795.303589,328
795.422668,349
795.541687,334
795.660767,332
795.779846,309
795.898865,334
796.017883,325
796.136963,341
796.255981,345
796.375061,343
796.49408,321
796.613037,323
796.732117,322
796.851135,322
796.970154,327
797.089233,314
797.208191,323
797.327271,329
797.446228,336
797.565186,330
797.684265,319
797.803223,332
797.922241,343
798.04126,329
798.160278,322
798.279297,316
798.398315,324
798.517273,332
798.636292,324
798.75531,318
798.874268,326
798.993286,325
799.112244,319
799.231323,330
799.350281,328
799.469238,337
799.588257,312
799.707153,332
799.826111,327
799.945129,314
800.064087,321
800.183044,340
800.302063,325
800.421021,328
800.539978,324
800.658936,328
800.777893,333
800.896912,326
801.015747,324
801.134705,319
801.253723,323
801.37262,321
801.491638,331
801.610535,335
801.729492,320
801.84845,337
801.967407,323
802.086243,317
802.205261,332
802.324158,318
802.443115,321
802.562073,331
802.680969,329
802.799927,334
802.918762,326
803.037659,320
803.156677,328
803.275574,316
803.39447,328
803.513428,332
803.632263,315
803.751221,313
803.870117,332
803.989014,329
804.107971,314
804.226746,313
804.345642,328
804.4646,324
804.583496,318
804.702393,330
804.821228,331
804.940125,313
805.059021,300
805.177917,329
805.296814,317
805.415649,332
805.534546,318
805.653442,314
805.772278,334
805.891113,314
806.01001,343
806.128906,316
806.247742,335
806.366577,324
806.485413,321
806.604309,320
806.723145,330
806.84198,317
806.960876,319
807.079712,318
807.198486,327
807.317383,319
807.436218,319
807.554993,308
807.673889,330
807.792725,312
807.91156,337
808.030396,323
808.14917,323
808.268005,314
808.386841,337
808.505676,321
808.624451,335
808.743286,323
808.862122,300
808.980896,336
809.099731,331
809.218506,319
809.337341,328
809.456116,322
809.57489,322
809.693726,306
809.8125,325
809.931274,320
810.050049,326
810.168884,317
810.287659,314
810.406372,313
810.525269,321
810.643982,321
810.762756,335
810.881531,318
811.000305,345
811.11908,317
811.237854,316
811.356567,317
811.475403,322
811.594116,321
811.71283,336
811.831604,321
811.950378,311
812.069153,324
812.187927,312
812.30658,317
812.425415,322
812.544128,326
812.662781,319
812.781616,319
812.900269,317
813.019043,316
813.137756,323
813.256531,315
813.375244,322
813.493896,338
813.612671,313
813.731384,325
813.850037,310
813.96875,316
814.087524,309
814.206238,327
814.324951,327
814.443604,311
814.562256,318
814.68103,307
814.799683,321
814.918335,316
815.037109,312
815.155762,325
815.274475,326
815.393188,315
815.511841,332
815.630554,315
815.749146,327
815.867859,317
815.986572,320
816.105164,326
816.223877,324
816.342529,325
816.461182,329
816.579895,311
816.698486,332
816.817139,325
816.935791,323
817.054504,310
817.173096,314
817.291748,320
817.4104,325
817.529053,320
817.647644,329
817.766235,323
817.884949,317
818.00354,316
818.122192,332
818.240845,315
818.359436,320
818.478088,313
818.59668,331
818.715271,320
818.833923,319
818.952515,324
819.071106,338
819.189758,325
819.30835,322
819.426941,315
819.545532,314
819.664124,310
819.782715,312
819.901306,325
820.019897,325
820.138489,317
820.25708,331
820.375671,320
820.494202,320
820.612732,334
820.731384,322
820.849915,317
820.968506,323
821.087097,303
821.205627,328
821.324158,312
821.442749,320
821.561279,320
821.679871,331
821.798401,306
821.916931,326
822.035461,309
822.154053,312
822.272583,318
822.391174,321
822.509583,315
822.628174,331
822.746704,319
822.865234,323
822.983765,312
823.102295,315
823.220825,305
823.339294,322
823.457825,306
823.576355,328
823.694824,310
823.813354,320
823.931885,334
824.050354,312
824.168884,316
824.287354,319
824.405823,313
824.524353,316
824.642822,320
824.761353,320
824.879822,322
824.998291,316
825.116699,309
825.235291,321
825.353699,322
825.472168,320
825.590637,331
825.709106,326
825.827576,315
825.946045,316
826.064453,315
826.182983,306
826.301392,317
826.4198,322
826.53833,328
826.656738,321
826.775208,307
826.893677,322
827.012024,313
827.130493,329
827.248962,317
827.36731,308
827.485779,325
827.604248,341
827.722595,324
827.841064,316
827.959412,332
828.077942,319
828.196289,315
828.314636,312
828.433105,305
828.551514,323
828.669861,324
828.78833,323
828.906677,312
829.025085,318
829.143433,313
829.261841,315
829.38031,325
829.498657,322
829.617004,308
829.735413,322
829.85376,316
829.972107,323
830.090515,325
830.208862,314
830.327209,316
830.445557,331
830.563904,324
830.682312,320
830.800659,324
830.919006,309
831.037354,319
831.155701,316
831.274048,321
831.392395,318
831.51062,304
831.629028,310
831.747314,307
831.865662,329
831.984009,313
832.102356,322
832.220642,319
832.338928,314
832.457275,307
832.575623,318
832.693909,328
832.812134,312
832.930481,316
833.048828,314
833.167114,305
833.2854,313
833.403687,325
833.521973,323
833.640259,317
833.758545,317
833.876831,329
833.995056,315
834.113281,321
834.231628,321
834.349915,326
834.468201,310
834.586426,318
834.704651,327
834.822998,331
834.941162,315
835.059448,322
835.177673,320
835.295959,307
835.414246,321
835.53241,323
835.650635,313
835.768921,297
835.887146,317
836.005371,324
836.123596,316
836.241821,315
836.360046,316
836.478271,323
836.596497,327
836.714722,307
836.832886,329
836.95105,305
837.069336,309
837.1875,320
837.305725,314
837.423889,320
837.542053,319
837.660339,327
837.778503,317
837.896667,316
838.014832,320
838.132996,305
838.25116,324
838.369385,310
838.487488,323
838.605713,318
838.723877,314
838.84198,322
838.960205,318
839.078308,308
839.196472,318
839.314636,323
839.4328,315
839.550964,327
839.669067,322
839.787231,312
839.905396,315
840.023499,333
840.141602,309
840.259766,304
840.377869,336
840.495972,308
840.614136,343
840.732239,307
840.850342,325
840.968445,318
841.086548,316
841.204651,328
841.322754,336
841.440918,324
841.55896,322
841.677002,316
841.795166,325
841.913208,308
842.031311,324
842.149353,327
842.267456,322
842.385498,315
842.503601,322
842.621643,308
842.739746,330
842.857788,315
842.97583,328
843.093933,317
843.211975,303
843.330017,323
843.44812,327
843.566101,313
843.684204,311
843.802246,310
843.920227,326
844.038269,319
844.156311,325
844.274292,317
844.392395,300
844.510376,329
844.628357,327
844.74646,322
844.864441,323
844.982422,300
845.100403,310
845.218384,315
845.336426,319
845.454468,313
845.572449,316
845.69043,324
845.808411,317
845.926453,322
846.044373,316
846.162354,316
846.280396,321
846.398315,317
846.516296,309
846.634216,312
846.752197,316
846.870178,311
846.988098,319
847.106079,312
847.22406,304
847.34198,316
847.4599,322
847.577881,306
847.695801,324
847.813782,318
847.931641,313
848.049561,312
848.167603,310
848.285461,314
848.403381,316
848.521362,312
848.639221,328
848.75708,314
848.875,325
848.99292,309
849.110901,324
849.22876,312
849.34668,314
849.464539,306
849.582458,322
849.700317,306
849.818176,325
849.936096,308
850.053955,316
850.171875,326
850.289673,327
850.407593,325
850.525452,320
850.643311,334
850.761169,319
850.878967,311
850.996887,322
851.114746,323
851.232544,332
851.350403,321
851.468262,314
851.58606,310
851.703979,318
851.821777,325
851.939636,311
852.057434,303
852.175232,327
852.293091,311
852.410889,321
852.528687,315
852.646545,330
852.764343,324
852.88208,314
852.999939,318
853.117676,332
853.235535,313
853.353271,315
853.471069,309
853.588928,322
853.706604,311
853.824402,306
853.9422,304
854.059998,318
854.177734,313
854.295532,320
854.413269,308
854.531006,323
854.648804,318
854.766541,328
854.884277,313
855.002014,315
855.119751,307
855.237549,328
855.355225,324
855.473022,323
855.590698,315
855.708435,327
855.826172,314
855.943848,336
856.061646,318
856.179321,321
856.296997,317
856.414795,326
856.53241,325
856.650085,310
856.767822,319
856.885559,311
857.003174,321
857.120911,327
857.238586,335
857.356201,332
857.473938,319
857.591614,317
857.709351,335
857.826965,325
857.944641,303
858.062317,327
858.179993,315
858.297668,316
858.415283,320
858.532959,309
858.650574,320
858.768188,321
858.885803,321
859.003479,323
859.121094,316
859.23877,321
859.356384,318
859.473999,321
859.591675,320
859.709229,317
859.826843,315
859.944458,320
860.062012,321
860.179626,337
860.297302,288
860.414856,332
860.532471,309
860.650024,318
860.767639,320
860.885193,322
861.002808,325
861.120361,323
861.237976,306
861.35553,324
861.473022,312
861.590698,303
861.708191,325
861.825745,327
861.943298,321
862.060852,323
862.178406,314
862.295959,313
862.413513,320
862.531006,337
862.64856,308
862.766113,327
862.883667,320
863.00116,323
863.118713,320
863.236206,321
863.353699,317
863.471252,324
863.588745,317
863.706177,322
863.82373,303
863.941162,320
864.058716,325
864.176208,318
864.29364,313
864.411194,316
864.528687,316
864.646118,321
864.763611,324
864.881042,316
864.998535,310
865.116028,318
865.233459,319
865.350891,328
865.468384,321
865.585754,310
865.703308,325
865.820679,309
865.938171,315
866.055542,329
866.173035,306
866.290466,315
866.407837,320
866.52533,310
866.6427,315
866.760071,334
866.877563,318
866.994934,325
867.112305,311
867.229736,327
867.347107,314
867.464539,333
867.58197,301
867.699341,313
867.81665,313
867.934082,322
868.051453,316
868.168823,314
868.286194,311
868.403564,319
868.520935,311
868.638306,323
868.755676,303
868.872986,309
868.990295,311
869.107727,324
869.225037,318
869.342346,305
869.459717,315
869.577026,335
869.694336,315
869.811707,325
869.929016,313
870.046326,325
870.163635,309
870.280945,309
870.398254,308
870.515564,318
870.632812,316
870.750183,321
870.867432,321
870.984741,326
871.102051,306
871.219299,331
871.336609,317
871.453918,314
871.571106,312
871.688416,329
871.805664,308
871.922852,334
872.040222,298
872.157471,307
872.274719,331
872.391968,326
872.509155,315
872.626465,313
872.743652,314
872.860962,334
872.978149,320
873.095337,326
873.212646,311
873.329834,320
873.44696,317
873.564209,336
873.681396,315
873.798645,312
873.915894,313
874.03302,314
874.150208,305
874.267456,324
874.384583,318
874.501831,335
874.618958,310
874.736145,316
874.853333,318
874.970459,310
875.087646,314
875.204834,310
875.32196,317
875.439148,336
875.556274,317
875.673401,315
875.790527,325
875.907715,316
876.024841,328
876.141968,344
876.259094,311
876.376282,312
876.493347,309
876.610474,325
876.7276,298
876.844727,327
876.961853,319
877.078918,322
877.195984,311
877.313171,324
877.430237,331
877.547302,311
877.664368,319
877.781433,317
877.898499,316
878.015625,317
878.13269,319
878.249695,315
878.366821,312
878.483887,308
878.600952,320
878.717957,316
878.834961,306
878.952087,322
879.069092,313
879.186157,314
879.303162,309
879.420227,334
879.537231,308
879.654236,328
879.77124,316
879.888306,327
880.005249,322
880.122314,321
880.239319,313
880.356323,320
880.473328,314
880.590271,324
880.707275,306
880.824341,322
880.941284,310
881.058228,318
881.175232,312
881.292236,335
881.40918,320
881.526123,329
881.643066,306
881.760071,333
881.877014,304
881.993958,309
882.11084,322
882.227783,314
882.344727,307
882.46167,324
882.578613,307
882.695618,325
882.812439,323
882.929382,317
883.046326,327
883.163208,300
883.280151,315
883.397034,312
883.513916,320
883.630798,326
883.747742,314
883.864563,313
883.981506,324
884.098389,336
884.21521,309
884.332153,310
884.448975,314
884.565796,326
884.682678,314
884.7995,323
884.916443,311
885.033264,334
885.150085,320
885.266968,333
885.383789,333
885.500671,336
885.617493,319
885.734314,324
885.851196,316
885.967896,326
886.084717,323
886.201599,320
886.318359,322
886.435181,329
886.552002,331
886.668762,327
886.785645,324
886.902344,319
887.019165,310
887.135925,324
887.252747,310
887.369446,331
887.486267,319
887.603027,317
887.719788,320
887.836548,315
887.953247,299
888.070068,315
888.186829,326
888.303528,320
888.420288,310
888.536987,314
888.653687,314
888.770447,336
888.887146,320
889.003967,312
889.120667,311
889.237305,317
889.354065,317
889.470703,314
889.587463,335
889.704163,332
889.820862,305
889.937561,312
890.054199,294
890.170837,312
890.287598,309
890.404236,315
890.520874,314
890.637634,308
890.754211,302
890.87085,323
890.987549,298
891.104187,318
891.220886,304
891.337463,337
891.454102,313
891.57074,327
891.687378,309
891.804077,321
891.920654,300
892.037231,317
892.15387,308
892.270447,323
892.387085,314
892.503723,324
892.6203,303
892.736877,317
892.853516,319
892.970032,308
893.08667,307
893.203186,327
893.319763,324
893.43634,321
893.552917,326
893.669556,327
893.786011,309
893.902588,313
894.019165,302
894.135681,330
894.252197,299
894.368835,319
894.485291,318
894.601868,330
894.718384,300
894.8349,312
894.951355,310
895.067932,328
895.184448,313
895.300964,324
895.417419,307
895.533936,322
895.650452,304
895.766907,316
895.883423,321
895.999878,320
896.116333,317
896.232849,312
896.349304,312
896.465759,323
896.582214,304
896.698669,315
896.815125,316
896.931641,321
897.048035,301
897.164551,340
897.280884,307
897.397339,317
897.513794,299
897.630249,325
897.746582,310
897.863098,321
897.979431,320
898.095886,329
898.212341,306
898.328674,325
898.445129,323
898.561462,318
898.677795,317
898.794312,327
898.910645,306
899.026978,333
899.143433,318
899.259766,317
899.37616,310
899.492493,319
899.608765,323
899.725159,308
899.841553,317
899.957947,323
900.07428,317
900.190552,312
900.306946,307
900.423157,311
900.53949,314
900.655884,310
900.772156,319
900.888489,317
901.004822,331
901.121033,323
901.237366,318
901.353699,320
901.46991,317
901.586304,313
901.702515,306
901.818787,312
901.93512,311
902.051331,313
902.167603,316
902.283875,324
902.400085,308
902.516418,323
902.632629,327
902.74884,326
902.865112,319
902.981384,321
903.097595,321
903.213867,327
903.330017,312
903.446289,327
903.5625,322
903.67865,322
903.794922,302
903.911072,310
904.027344,309
904.143494,309
904.259705,310
904.375916,317
904.492065,313
904.608215,316
904.724426,322
904.840576,319
904.956726,302
905.072876,321
905.189087,323
905.305176,331
905.421387,318
905.537537,328
905.653687,312
905.769775,317
905.885925,315
906.002014,310
906.118164,297
906.234314,332
906.350403,310
906.466492,324
906.582642,312
906.69873,322
906.814758,318
906.930908,325
907.046936,290
907.163086,331
907.279175,322
907.395264,323
907.511353,304
907.62738,321
907.743408,326
907.859497,320
907.975525,322
908.091553,325
908.207703,318
908.32373,315
908.439758,319
908.555786,323
908.671814,318
908.787842,315
908.90387,330
909.019775,319
909.135864,310
909.251892,323
909.367859,302
909.483826,316
909.599854,311
909.715881,314
909.831848,312
909.947815,311
910.063782,305
910.179749,330
910.295776,314
910.411743,315
910.527649,313
910.643616,329
910.759583,303
910.875488,320
910.991455,318
911.107361,323
911.223267,322
911.339294,324
911.4552,317
911.571106,329
911.687073,302
911.802979,342
911.918823,315
912.034729,321
912.150635,311
912.266602,314
912.382446,310
912.498352,316
912.614197,309
912.730103,314
912.846008,291
