792.44574,303
792.56488,360
792.68396,397
792.80304,381
792.92218,333
793.041199,326
793.160339,317
793.279419,321
793.398499,325
793.517578,308
793.636658,331
793.755737,324
793.874817,348
793.993896,352
794.112976,329
794.232056,323
794.351074,333
794.470215,319
794.589233,339
794.708313,325
794.827393,322
794.946411,341
795.065552,334
795.18457,335
795.303589,323
795.422668,322
795.541687,321
795.660767,333
795.779846,324
795.898865,318
796.017883,336
796.136963,322
796.255981,334
796.375061,327
796.49408,323
796.613037,321
796.732117,334
796.851135,315
796.970154,325
797.089233,338
797.208191,322
797.327271,319
797.446228,336
797.565186,335
797.684265,324
797.803223,318
797.922241,327
798.04126,324
798.160278,325
798.279297,325
798.398315,328
798.517273,318
798.636292,323
798.75531,339
798.874268,341
798.993286,329
799.112244,314
799.231323,338
799.350281,323
799.469238,350
799.588257,325
799.707153,333
799.826111,317
799.945129,310
800.064087,312
800.183044,326
800.302063,327
800.421021,329
800.539978,326
800.658936,336
800.777893,322
800.896912,315
801.015747,322
801.134705,331
801.253723,318
801.37262,336
801.491638,328
801.610535,319
801.729492,332
801.84845,315
801.967407,322
802.086243,339
802.205261,322
802.324158,316
802.443115,338
802.562073,319
802.680969,321
802.799927,333
802.918762,309
803.037659,321
803.156677,335
803.275574,314
803.39447,327
803.513428,324
803.632263,330
803.751221,331
803.870117,313
803.989014,325
804.107971,334
804.226746,335
804.345642,318
804.4646,318
804.583496,322
804.702393,335
804.821228,331
804.940125,318
805.059021,319
805.177917,320
805.296814,308
805.415649,347
805.534546,320
805.653442,317
805.772278,335
805.891113,329
806.01001,336
806.128906,333
806.247742,317
806.366577,326
806.485413,327
806.604309,316
806.723145,328
806.84198,321
806.960876,319
807.079712,322
807.198486,311
807.317383,337
807.436218,311
807.554993,332
807.673889,318
807.792725,326
807.91156,326
808.030396,313
808.14917,319
808.268005,328
808.386841,322
808.505676,319
808.624451,332
808.743286,320
808.862122,314
808.980896,326
809.099731,327
809.218506,330
809.337341,314
809.456116,335
809.57489,321
809.693726,325
809.8125,332
809.931274,316
810.050049,324
810.168884,337
810.287659,322
810.406372,321
810.525269,325
810.643982,339
810.762756,310
810.881531,326
811.000305,332
811.11908,329
811.237854,333
811.356567,353
811.475403,336
811.594116,327
811.71283,328
811.831604,331
811.950378,334
812.069153,312
812.187927,323
812.30658,331
812.425415,334
812.544128,328
812.662781,322
812.781616,336
812.900269,339
813.019043,325
813.137756,329
813.256531,324
813.375244,320
813.493896,320
813.612671,322
813.731384,329
813.850037,322
813.96875,317
814.087524,330
814.206238,328
814.324951,327
814.443604,331
814.562256,326
814.68103,323
814.799683,334
814.918335,335
815.037109,322
815.155762,336
815.274475,332
815.393188,326
815.511841,308
815.630554,328
815.749146,335
815.867859,335
815.986572,330
816.105164,316
816.223877,334
816.342529,326
816.461182,327
816.579895,327
816.698486,325
816.817139,336
816.935791,322
817.054504,328
817.173096,328
817.291748,337
817.4104,322
817.529053,324
817.647644,328
817.766235,316
817.884949,322
818.00354,339
818.122192,322
818.240845,334
818.359436,311
818.478088,328
818.59668,317
818.715271,319
818.833923,311
818.952515,322
819.071106,322
819.189758,333
819.30835,323
819.426941,322
819.545532,314
819.664124,326
819.782715,325
819.901306,317
820.019897,322
820.138489,319
820.25708,325
820.375671,336
820.494202,310
820.612732,309
820.731384,315
820.849915,320
820.968506,319
821.087097,325
821.205627,317
821.324158,309
821.442749,314
821.561279,316
821.679871,302
821.798401,320
821.916931,324
822.035461,315
822.154053,326
822.272583,296
822.391174,328
822.509583,308
822.628174,310
822.746704,331
822.865234,328
822.983765,317
823.102295,315
823.220825,308
823.339294,325
823.457825,314
823.576355,323
823.694824,306
823.813354,326
823.931885,317
824.050354,312
824.168884,316
824.287354,315
824.405823,322
824.524353,317
824.642822,324
824.761353,316
824.879822,316
824.998291,309
825.116699,311
825.235291,314
825.353699,327
825.472168,306
825.590637,322
825.709106,318
825.827576,311
825.946045,324
826.064453,308
826.182983,294
826.301392,313
826.4198,311
826.53833,326
826.656738,314
826.775208,310
826.893677,323
827.012024,318
827.130493,332
827.248962,314
827.36731,323
827.485779,311
827.604248,299
827.722595,320
827.841064,322
827.959412,322
828.077942,317
828.196289,314
828.314636,310
828.433105,328
828.551514,324
828.669861,315
828.78833,307
828.906677,313
829.025085,318
829.143433,326
829.261841,322
829.38031,309
829.498657,307
829.617004,326
829.735413,312
829.85376,306
829.972107,314
830.090515,317
830.208862,303
830.327209,325
830.445557,310
830.563904,310
830.682312,314
830.800659,319
830.919006,322
831.037354,317
831.155701,314
831.274048,328
831.392395,301
831.51062,312
831.629028,324
831.747314,311
831.865662,307
831.984009,313
832.102356,308
832.220642,314
832.338928,318
832.457275,300
832.575623,303
832.693909,318
832.812134,325
832.930481,325
833.048828,312
833.167114,314
833.2854,315
833.403687,316
833.521973,313
833.640259,321
833.758545,311
833.876831,308
833.995056,319
834.113281,323
834.231628,315
834.349915,315
834.468201,315
834.586426,326
834.704651,314
834.822998,311
834.941162,322
835.059448,334
835.177673,317
835.295959,303
835.414246,336
835.53241,325
835.650635,319
835.768921,303
835.887146,317
836.005371,321
836.123596,321
836.241821,303
836.360046,321
836.478271,313
836.596497,313
836.714722,324
836.832886,311
836.95105,324
837.069336,316
837.1875,323
837.305725,299
837.423889,313
837.542053,318
837.660339,313
837.778503,315
837.896667,329
838.014832,314
838.132996,305
838.25116,326
838.369385,310
838.487488,321
838.605713,318
838.723877,320
838.84198,322
838.960205,314
839.078308,324
839.196472,323
839.314636,322
839.4328,307
839.550964,321
839.669067,314
839.787231,316
839.905396,309
840.023499,315
840.141602,327
840.259766,306
840.377869,321
840.495972,308
840.614136,313
840.732239,324
840.850342,300
840.968445,334
841.086548,319
841.204651,310
841.322754,316
841.440918,326
841.55896,307
841.677002,307
841.795166,313
841.913208,317
842.031311,322
842.149353,312
842.267456,331
842.385498,323
842.503601,315
842.621643,306
842.739746,308
842.857788,303
842.97583,328
843.093933,322
843.211975,304
843.330017,321
843.44812,325
843.566101,315
843.684204,301
843.802246,306
843.920227,316
844.038269,317
844.156311,324
844.274292,322
844.392395,313
844.510376,310
844.628357,328
844.74646,317
844.864441,318
844.982422,311
845.100403,311
845.218384,310
845.336426,307
845.454468,328
845.572449,311
845.69043,322
845.808411,328
845.926453,316
846.044373,313
846.162354,305
846.280396,306
846.398315,317
846.516296,308
846.634216,311
846.752197,315
846.870178,318
846.988098,305
847.106079,313
847.22406,310
847.34198,305
847.4599,317
847.577881,313
847.695801,299
847.813782,313
847.931641,319
848.049561,318
848.167603,311
848.285461,316
848.403381,311
848.521362,317
848.639221,324
848.75708,306
848.875,325
848.99292,333
849.110901,308
849.22876,320
849.34668,316
849.464539,310
849.582458,304
849.700317,310
849.818176,309
849.936096,319
850.053955,310
850.171875,306
850.289673,310
850.407593,309
850.525452,311
850.643311,315
850.761169,325
850.878967,320
850.996887,329
851.114746,307
851.232544,313
851.350403,317
851.468262,303
851.58606,309
851.703979,321
851.821777,313
851.939636,305
852.057434,324
852.175232,317
852.293091,320
852.410889,312
852.528687,320
852.646545,311
852.764343,326
852.88208,334
852.999939,310
853.117676,320
853.235535,316
853.353271,315
853.471069,315
853.588928,301
853.706604,309
853.824402,303
853.9422,328
854.059998,325
854.177734,315
854.295532,311
854.413269,308
854.531006,304
854.648804,312
854.766541,312
854.884277,323
855.002014,305
855.119751,316
855.237549,318
855.355225,312
855.473022,327
855.590698,319
855.708435,313
855.826172,313
855.943848,300
856.061646,316
856.179321,303
856.296997,317
856.414795,305
856.53241,330
856.650085,310
856.767822,321
856.885559,318
857.003174,307
857.120911,318
857.238586,322
857.356201,318
857.473938,310
857.591614,320
857.709351,317
857.826965,314
857.944641,322
858.062317,319
858.179993,309
858.297668,315
858.415283,326
858.532959,312
858.650574,325
858.768188,315
858.885803,315
859.003479,314
859.121094,317
859.23877,307
859.356384,317
859.473999,316
859.591675,310
859.709229,312
859.826843,329
859.944458,312
860.062012,316
860.179626,307
860.297302,324
860.414856,320
860.532471,319
860.650024,307
860.767639,313
860.885193,311
861.002808,316
861.120361,303
861.237976,320
861.35553,322
861.473022,335
861.590698,327
861.708191,321
861.825745,327
861.943298,316
862.060852,320
862.178406,316
862.295959,321
862.413513,318
862.531006,307
862.64856,313
862.766113,307
862.883667,302
863.00116,306
863.118713,318
863.236206,312
863.353699,308
863.471252,299
863.588745,309
863.706177,321
863.82373,322
863.941162,314
864.058716,325
864.176208,308
864.29364,308
864.411194,317
864.528687,318
864.646118,314
864.763611,314
864.881042,312
864.998535,322
865.116028,304
865.233459,327
865.350891,320
865.468384,313
865.585754,319
865.703308,328
865.820679,322
865.938171,311
866.055542,320
866.173035,323
866.290466,319
866.407837,305
866.52533,302
866.6427,318
866.760071,320
866.877563,324
866.994934,320
867.112305,307
867.229736,321
867.347107,310
867.464539,324
867.58197,336
867.699341,302
867.81665,312
867.934082,315
868.051453,320
868.168823,310
868.286194,307
868.403564,325
868.520935,317
868.638306,320
868.755676,318
868.872986,320
868.990295,310
869.107727,301
869.225037,321
869.342346,312
869.459717,315
869.577026,312
869.694336,325
869.811707,318
869.929016,318
870.046326,316
870.163635,321
870.280945,319
870.398254,324
870.515564,312
870.632812,332
870.750183,309
870.867432,328
870.984741,317
871.102051,316
871.219299,310
871.336609,308
871.453918,312
871.571106,319
871.688416,314
871.805664,312
871.922852,312
872.040222,315
872.157471,303
872.274719,324
872.391968,315
872.509155,311
872.626465,317
872.743652,321
872.860962,321
872.978149,307
873.095337,318
873.212646,305
873.329834,324
873.44696,310
873.564209,311
873.681396,324
873.798645,308
873.915894,324
874.03302,298
874.150208,303
874.267456,320
874.384583,310
874.501831,321
874.618958,324
874.736145,312
874.853333,320
874.970459,325
875.087646,325
875.204834,325
875.32196,306
875.439148,329
875.556274,310
875.673401,306
875.790527,327
875.907715,303
876.024841,316
876.141968,316
876.259094,323
876.376282,323
876.493347,308
876.610474,320
876.7276,309
876.844727,315
876.961853,333
877.078918,313
877.195984,325
877.313171,298
877.430237,319
877.547302,320
877.664368,313
877.781433,313
877.898499,315
878.015625,311
878.13269,327
878.249695,308
878.366821,326
878.483887,307
878.600952,301
878.717957,318
878.834961,319
878.952087,304
879.069092,318
879.186157,314
879.303162,327
879.420227,313
879.537231,311
879.654236,321
879.77124,309
879.888306,314
880.005249,328
880.122314,320
880.239319,322
880.356323,306
880.473328,313
880.590271,318
880.707275,321
880.824341,321
880.941284,310
881.058228,320
881.175232,319
881.292236,316
881.40918,303
881.526123,318
881.643066,320
881.760071,314
881.877014,323
881.993958,315
882.11084,320
882.227783,317
882.344727,302
882.46167,318
882.578613,321
882.695618,327
882.812439,328
882.929382,308
883.046326,335
883.163208,313
883.280151,329
883.397034,313
883.513916,312
883.630798,313
883.747742,311
883.864563,312
883.981506,313
884.098389,309
884.21521,316
884.332153,311
884.448975,327
884.565796,319
884.682678,309
884.7995,320
884.916443,311
885.033264,309
885.150085,313
885.266968,309
885.383789,318
885.500671,316
885.617493,310
885.734314,316
885.851196,310
885.967896,316
886.084717,310
886.201599,311
886.318359,317
886.435181,319
886.552002,328
886.668762,319
886.785645,314
886.902344,329
887.019165,300
887.135925,326
887.252747,318
887.369446,308
887.486267,323
887.603027,326
887.719788,334
887.836548,326
887.953247,320
888.070068,314
888.186829,325
888.303528,319
888.420288,327
888.536987,317
888.653687,317
888.770447,320
888.887146,324
889.003967,311
889.120667,314
889.237305,310
889.354065,323
889.470703,326
889.587463,314
889.704163,326
889.820862,314
889.937561,315
890.054199,314
890.170837,336
890.287598,320
890.404236,310
890.520874,319
890.637634,328
890.754211,311
890.87085,311
890.987549,316
891.104187,314
891.220886,311
891.337463,317
891.454102,322
891.57074,307
891.687378,324
891.804077,331
891.920654,305
892.037231,324
892.15387,302
892.270447,310
892.387085,317
892.503723,317
892.6203,322
892.736877,309
892.853516,314
892.970032,321
893.08667,335
893.203186,327
893.319763,314
893.43634,324
893.552917,332
893.669556,310
893.786011,314
893.902588,321
894.019165,310
894.135681,329
894.252197,330
894.368835,320
894.485291,319
894.601868,319
894.718384,330
894.8349,310
894.951355,328
895.067932,303
895.184448,322
895.300964,316
895.417419,318
895.533936,327
895.650452,307
895.766907,322
895.883423,313
895.999878,322
896.116333,323
896.232849,316
896.349304,322
896.465759,313
896.582214,325
896.698669,312
896.815125,320
896.931641,299
897.048035,327
897.164551,304
897.280884,323
897.397339,316
897.513794,321
897.630249,309
897.746582,311
897.863098,318
897.979431,323
898.095886,318
898.212341,315
898.328674,312
898.445129,327
898.561462,311
898.677795,313
898.794312,299
898.910645,316
899.026978,306
899.143433,311
899.259766,308
899.37616,318
899.492493,316
899.608765,321
899.725159,327
899.841553,311
899.957947,318
900.07428,312
900.190552,329
900.306946,318
900.423157,310
900.53949,318
900.655884,313
900.772156,322
900.888489,325
901.004822,316
901.121033,320
901.237366,313
901.353699,329
901.46991,321
901.586304,320
901.702515,317
901.818787,306
901.93512,329
902.051331,318
902.167603,304
902.283875,307
902.400085,316
902.516418,309
902.632629,324
902.74884,315
902.865112,308
902.981384,315
903.097595,327
903.213867,320
903.330017,319
903.446289,320
903.5625,321
903.67865,330
903.794922,332
903.911072,327
904.027344,324
904.143494,312
904.259705,319
904.375916,315
904.492065,316
904.608215,323
904.724426,323
904.840576,312
904.956726,315
905.072876,314
905.189087,311
905.305176,319
905.421387,324
905.537537,317
905.653687,309
905.769775,320
905.885925,315
906.002014,328
906.118164,318
906.234314,312
906.350403,310
906.466492,319
906.582642,312
906.69873,315
906.814758,320
906.930908,322
907.046936,317
907.163086,319
907.279175,312
907.395264,316
907.511353,308
907.62738,313
907.743408,330
907.859497,320
907.975525,324
908.091553,327
908.207703,315
908.32373,327
908.439758,317
908.555786,296
908.671814,310
908.787842,316
908.90387,317
909.019775,308
909.135864,320
909.251892,313
909.367859,303
909.483826,315
909.599854,321
909.715881,321
909.831848,320
909.947815,302
910.063782,313
910.179749,314
910.295776,308
910.411743,310
910.527649,308
910.643616,323
910.759583,316
910.875488,320
910.991455,331
911.107361,324
911.223267,306
911.339294,309
911.4552,310
911.571106,333
911.687073,322
911.802979,312
911.918823,313
912.034729,315
912.150635,316
912.266602,312
912.382446,311
912.498352,326
912.614197,324
912.730103,305
912.846008,310
792.44574,307
792.56488,356
792.68396,396
792.80304,390
792.92218,347
793.041199,324
793.160339,319
793.279419,326
793.398499,344
793.517578,312
793.636658,313
793.755737,339
793.874817,336
793.993896,335
794.112976,335
794.232056,318
794.351074,313
794.470215,324
794.589233,328
794.708313,316
794.827393,335
794.946411,340
795.065552,330
795.18457,333
795.303589,327
795.422668,317
795.541687,325
795.660767,328
795.779846,327
795.898865,328
796.017883,324
796.136963,335
796.255981,324
796.375061,344
796.49408,325
796.613037,323
796.732117,337
796.851135,324
796.970154,332
797.089233,324
797.208191,343
797.327271,312
797.446228,325
797.565186,328
797.684265,347
797.803223,307
797.922241,333
798.04126,325
798.160278,332
798.279297,323
798.398315,320
798.517273,316
798.636292,317
798.75531,335
798.874268,320
798.993286,313
799.112244,330
799.231323,329
799.350281,335
799.469238,322
799.588257,325
799.707153,332
799.826111,315
799.945129,322
800.064087,316
800.183044,333
800.302063,332
800.421021,327
800.539978,343
800.658936,313
800.777893,336
800.896912,315
801.015747,327
801.134705,329
801.253723,333
801.37262,340
801.491638,316
801.610535,317
801.729492,323
801.84845,325
801.967407,330
802.086243,330
802.205261,328
802.324158,313
802.443115,333
802.562073,325
802.680969,316
802.799927,317
802.918762,337
803.037659,322
803.156677,330
803.275574,331
803.39447,313
803.513428,330
803.632263,343
803.751221,323
803.870117,329
803.989014,329
804.107971,322
804.226746,315
804.345642,331
804.4646,317
804.583496,339
804.702393,330
804.821228,332
804.940125,322
805.059021,325
805.177917,329
805.296814,319
805.415649,328
805.534546,323
805.653442,334
805.772278,324
805.891113,334
806.01001,338
806.128906,332
806.247742,328
806.366577,334
806.485413,332
806.604309,323
806.723145,324
806.84198,327
806.960876,311
807.079712,316
807.198486,343
807.317383,329
807.436218,319
807.554993,328
807.673889,326
807.792725,335
807.91156,330
808.030396,323
808.14917,319
808.268005,336
808.386841,319
808.505676,333
808.624451,326
808.743286,328
808.862122,331
808.980896,330
809.099731,324
809.218506,339
809.337341,327
809.456116,330
809.57489,343
809.693726,332
809.8125,315
809.931274,321
810.050049,318
810.168884,343
810.287659,325
810.406372,322
810.525269,327
810.643982,344
810.762756,316
810.881531,331
811.000305,323
811.11908,319
811.237854,330
811.356567,331
811.475403,323
811.594116,326
811.71283,325
811.831604,334
811.950378,306
812.069153,328
812.187927,346
812.30658,310
812.425415,315
812.544128,326
812.662781,329
812.781616,335
812.900269,323
813.019043,331
813.137756,333
813.256531,332
813.375244,329
813.493896,331
813.612671,323
813.731384,327
813.850037,320
813.96875,328
814.087524,335
814.206238,339
814.324951,325
814.443604,308
814.562256,324
814.68103,324
814.799683,334
814.918335,320
815.037109,330
815.155762,324
815.274475,317
815.393188,324
815.511841,323
815.630554,337
815.749146,308
815.867859,333
815.986572,327
816.105164,314
816.223877,325
816.342529,351
816.461182,320
816.579895,331
816.698486,317
816.817139,328
816.935791,315
817.054504,325
817.173096,333
817.291748,315
817.4104,328
817.529053,326
817.647644,327
817.766235,324
817.884949,315
818.00354,302
818.122192,332
818.240845,318
818.359436,334
818.478088,336
818.59668,317
818.715271,329
818.833923,319
818.952515,323
819.071106,317
819.189758,319
819.30835,316
819.426941,322
819.545532,317
819.664124,307
819.782715,319
819.901306,327
820.019897,330
820.138489,305
820.25708,319
820.375671,327
820.494202,324
820.612732,313
820.731384,323
820.849915,319
820.968506,313
821.087097,327
821.205627,319
821.324158,324
821.442749,325
821.561279,329
821.679871,304
821.798401,322
821.916931,318
822.035461,327
822.154053,306
822.272583,308
822.391174,319
822.509583,320
822.628174,313
822.746704,324
822.865234,315
822.983765,314
823.102295,316
823.220825,320
823.339294,315
823.457825,331
823.576355,311
823.694824,315
823.813354,323
823.931885,316
824.050354,311
824.168884,321
824.287354,318
824.405823,331
824.524353,318
824.642822,322
824.761353,312
824.879822,319
824.998291,323
825.116699,313
825.235291,313
825.353699,322
825.472168,318
825.590637,313
825.709106,320
825.827576,326
825.946045,329
826.064453,323
826.182983,309
826.301392,318
826.4198,323
826.53833,309
826.656738,319
826.775208,297
826.893677,308
827.012024,324
827.130493,323
827.248962,322
827.36731,312
827.485779,316
827.604248,318
827.722595,323
827.841064,318
827.959412,316
828.077942,301
828.196289,323
828.314636,313
828.433105,313
828.551514,318
828.669861,323
828.78833,315
828.906677,309
829.025085,313
829.143433,322
829.261841,326
829.38031,322
829.498657,308
829.617004,328
829.735413,314
829.85376,316
829.972107,321
830.090515,313
830.208862,307
830.327209,320
830.445557,312
830.563904,315
830.682312,313
830.800659,317
830.919006,316
831.037354,322
831.155701,310
831.274048,319
831.392395,311
831.51062,308
831.629028,311
831.747314,318
831.865662,316
831.984009,311
832.102356,312
832.220642,325
832.338928,327
832.457275,325
832.575623,312
832.693909,311
832.812134,313
832.930481,322
833.048828,311
833.167114,326
833.2854,320
833.403687,314
833.521973,322
833.640259,326
833.758545,305
833.876831,320
833.995056,296
834.113281,317
834.231628,324
834.349915,323
834.468201,313
834.586426,320
834.704651,313
834.822998,328
834.941162,321
835.059448,313
835.177673,309
835.295959,333
835.414246,324
835.53241,309
835.650635,330
835.768921,318
835.887146,314
836.005371,318
836.123596,324
836.241821,322
836.360046,315
836.478271,316
836.596497,330
836.714722,312
836.832886,309
836.95105,309
837.069336,314
837.1875,323
837.305725,311
837.423889,324
837.542053,327
837.660339,315
837.778503,318
837.896667,309
838.014832,301
838.132996,311
838.25116,310
838.369385,319
838.487488,310
838.605713,321
838.723877,311
838.84198,309
838.960205,325
839.078308,321
839.196472,310
839.314636,318
839.4328,327
839.550964,320
839.669067,303
839.787231,327
839.905396,301
840.023499,321
840.141602,321
840.259766,335
840.377869,329
840.495972,318
840.614136,316
840.732239,311
840.850342,312
840.968445,324
841.086548,321
841.204651,316
841.322754,333
841.440918,318
841.55896,318
841.677002,309
841.795166,314
841.913208,308
842.031311,329
842.149353,324
842.267456,297
842.385498,315
842.503601,299
842.621643,318
842.739746,311
842.857788,309
842.97583,325
843.093933,309
843.211975,323
843.330017,318
843.44812,304
843.566101,316
843.684204,318
843.802246,317
843.920227,313
844.038269,316
844.156311,306
844.274292,318
844.392395,318
844.510376,322
844.628357,314
844.74646,311
844.864441,308
844.982422,322
845.100403,313
845.218384,303
845.336426,317
845.454468,318
845.572449,313
845.69043,310
845.808411,316
845.926453,319
846.044373,318
846.162354,320
846.280396,326
846.398315,326
846.516296,339
846.634216,313
846.752197,315
846.870178,314
846.988098,327
847.106079,314
847.22406,307
847.34198,321
847.4599,327
847.577881,303
847.695801,324
847.813782,306
847.931641,318
848.049561,312
848.167603,311
848.285461,314
848.403381,316
848.521362,328
848.639221,321
848.75708,315
848.875,318
848.99292,324
849.110901,307
849.22876,325
849.34668,301
849.464539,324
849.582458,304
849.700317,320
849.818176,315
849.936096,318
850.053955,309
850.171875,321
850.289673,312
850.407593,312
850.525452,322
850.643311,339
850.761169,303
850.878967,321
850.996887,322
851.114746,311
851.232544,302
851.350403,303
851.468262,319
851.58606,299
851.703979,316
851.821777,342
851.939636,308
852.057434,334
852.175232,313
852.293091,313
852.410889,311
852.528687,314
852.646545,317
852.764343,318
852.88208,313
852.999939,321
853.117676,306
853.235535,330
853.353271,325
853.471069,322
853.588928,332
853.706604,330
853.824402,323
853.9422,310
854.059998,301
854.177734,321
854.295532,296
854.413269,320
854.531006,324
854.648804,317
854.766541,308
854.884277,322
855.002014,319
855.119751,318
855.237549,317
855.355225,312
855.473022,315
855.590698,320
855.708435,320
855.826172,298
855.943848,331
856.061646,330
856.179321,326
856.296997,318
856.414795,315
856.53241,310
856.650085,304
856.767822,305
856.885559,317
857.003174,312
857.120911,312
857.238586,313
857.356201,317
857.473938,306
857.591614,315
857.709351,329
857.826965,314
857.944641,315
858.062317,307
858.179993,323
858.297668,318
858.415283,324
858.532959,316
858.650574,308
858.768188,318
858.885803,323
859.003479,311
859.121094,311
859.23877,306
859.356384,324
859.473999,321
859.591675,308
859.709229,312
859.826843,335
859.944458,320
860.062012,322
860.179626,313
860.297302,329
860.414856,327
860.532471,309
860.650024,319
860.767639,312
860.885193,316
861.002808,313
861.120361,314
861.237976,320
861.35553,296
861.473022,313
861.590698,303
861.708191,317
861.825745,339
861.943298,319
862.060852,313
862.178406,317
862.295959,313
862.413513,324
862.531006,326
862.64856,323
862.766113,326
862.883667,305
863.00116,311
863.118713,316
863.236206,305
863.353699,305
863.471252,308
863.588745,313
863.706177,312
863.82373,313
863.941162,319
864.058716,302
864.176208,323
864.29364,310
864.411194,326
864.528687,317
864.646118,314
864.763611,319
864.881042,314
864.998535,312
865.116028,316
865.233459,313
865.350891,308
865.468384,307
865.585754,314
865.703308,322
865.820679,317
865.938171,313
866.055542,301
866.173035,320
866.290466,315
866.407837,301
866.52533,323
866.6427,321
866.760071,324
866.877563,312
866.994934,303
867.112305,321
867.229736,309
867.347107,317
867.464539,326
867.58197,317
867.699341,305
867.81665,314
867.934082,314
868.051453,314
868.168823,299
868.286194,313
868.403564,320
868.520935,312
868.638306,321
868.755676,316
868.872986,313
868.990295,326
869.107727,321
869.225037,330
869.342346,319
869.459717,316
869.577026,318
869.694336,329
869.811707,326
869.929016,317
870.046326,333
870.163635,296
870.280945,315
870.398254,332
870.515564,310
870.632812,320
870.750183,317
870.867432,318
870.984741,324
871.102051,320
871.219299,309
871.336609,308
871.453918,317
871.571106,311
871.688416,312
871.805664,313
871.922852,313
872.040222,320
872.157471,310
872.274719,303
872.391968,325
872.509155,333
872.626465,315
872.743652,310
872.860962,324
872.978149,306
873.095337,314
873.212646,325
873.329834,315
873.44696,319
873.564209,310
873.681396,323
873.798645,314
873.915894,316
874.03302,320
874.150208,304
874.267456,316
874.384583,327
874.501831,319
874.618958,318
874.736145,314
874.853333,322
874.970459,321
875.087646,313
875.204834,306
875.32196,318
875.439148,302
875.556274,308
875.673401,326
875.790527,318
875.907715,314
876.024841,316
876.141968,318
876.259094,309
876.376282,311
876.493347,321
876.610474,317
876.7276,310
876.844727,321
876.961853,312
877.078918,327
877.195984,310
877.313171,313
877.430237,318
877.547302,321
877.664368,309
877.781433,307
877.898499,324
878.015625,304
878.13269,324
878.249695,312
878.366821,315
878.483887,320
878.600952,308
878.717957,323
878.834961,324
878.952087,308
879.069092,321
879.186157,300
879.303162,318
879.420227,311
879.537231,314
879.654236,328
879.77124,331
879.888306,312
880.005249,315
880.122314,315
880.239319,318
880.356323,326
880.473328,303
880.590271,316
880.707275,329
880.824341,309
880.941284,318
881.058228,323
881.175232,320
881.292236,313
881.40918,315
881.526123,306
881.643066,330
881.760071,321
881.877014,320
881.993958,317
882.11084,331
882.227783,308
882.344727,315
882.46167,319
882.578613,311
882.695618,318
882.812439,327
882.929382,308
883.046326,317
883.163208,323
883.280151,328
883.397034,315
883.513916,323
883.630798,314
883.747742,321
883.864563,301
883.981506,322
884.098389,315
884.21521,314
884.332153,319
884.448975,304
884.565796,321
884.682678,317
884.7995,299
884.916443,322
885.033264,306
885.150085,309
885.266968,315
885.383789,324
885.500671,314
885.617493,323
885.734314,309
885.851196,324
885.967896,296
886.084717,336
886.201599,307
886.318359,325
886.435181,309
886.552002,313
886.668762,319
886.785645,308
886.902344,303
887.019165,321
887.135925,309
887.252747,311
887.369446,316
887.486267,316
887.603027,306
887.719788,329
887.836548,317
887.953247,313
888.070068,313
888.186829,326
888.303528,302
888.420288,312
888.536987,330
888.653687,316
888.770447,315
888.887146,321
889.003967,311
889.120667,318
889.237305,318
889.354065,327
889.470703,308
889.587463,322
889.704163,319
889.820862,312
889.937561,305
890.054199,312
890.170837,319
890.287598,329
890.404236,311
890.520874,320
890.637634,318
890.754211,317
890.87085,316
890.987549,318
891.104187,319
891.220886,319
891.337463,309
891.454102,315
891.57074,311
891.687378,317
891.804077,327
891.920654,315
892.037231,313
892.15387,311
892.270447,314
892.387085,321
892.503723,328
892.6203,313
892.736877,311
892.853516,316
892.970032,311
893.08667,321
893.203186,303
893.319763,330
893.43634,319
893.552917,318
893.669556,319
893.786011,316
893.902588,310
894.019165,316
894.135681,307
894.252197,325
894.368835,314
894.485291,319
894.601868,315
894.718384,304
894.8349,317
894.951355,329
895.067932,308
895.184448,326
895.300964,303
895.417419,319
895.533936,313
895.650452,325
895.766907,304
895.883423,324
895.999878,310
896.116333,315
896.232849,329
896.349304,318
896.465759,309
896.582214,321
896.698669,312
896.815125,313
896.931641,319
897.048035,308
897.164551,316
897.280884,314
897.397339,312
897.513794,315
897.630249,310
897.746582,326
897.863098,314
897.979431,316
898.095886,320
898.212341,314
898.328674,333
898.445129,317
898.561462,313
898.677795,325
898.794312,305
898.910645,321
899.026978,316
899.143433,304
899.259766,327
899.37616,315
899.492493,318
899.608765,316
899.725159,311
899.841553,337
899.957947,318
900.07428,320
900.190552,316
900.306946,313
900.423157,309
900.53949,314
900.655884,318
900.772156,313
900.888489,310
901.004822,311
901.121033,300
901.237366,317
901.353699,321
901.46991,333
901.586304,331
901.702515,316
901.818787,314
901.93512,324
902.051331,312
902.167603,320
902.283875,316
902.400085,321
902.516418,311
902.632629,305
902.74884,311
902.865112,324
902.981384,321
903.097595,317
903.213867,308
903.330017,323
903.446289,325
903.5625,328
903.67865,325
903.794922,316
903.911072,309
904.027344,310
904.143494,323
904.259705,332
904.375916,309
904.492065,330
904.608215,312
904.724426,316
904.840576,309
904.956726,321
905.072876,314
905.189087,298
905.305176,303
905.421387,323
905.537537,305
905.653687,305
905.769775,318
905.885925,324
906.002014,327
906.118164,317
906.234314,310
906.350403,321
906.466492,327
906.582642,313
906.69873,307
906.814758,315
906.930908,321
907.046936,323
907.163086,332
907.279175,318
907.395264,303
907.511353,322
907.62738,314
907.743408,322
907.859497,305
907.975525,317
908.091553,305
908.207703,331
908.32373,314
908.439758,311
908.555786,318
908.671814,322
908.787842,313
908.90387,325
909.019775,309
909.135864,339
909.251892,311
909.367859,337
909.483826,321
909.599854,325
909.715881,320
909.831848,325
909.947815,334
910.063782,315
910.179749,324
910.295776,312
910.411743,308
910.527649,327
910.643616,312
910.759583,329
910.875488,317
910.991455,330
911.107361,311
911.223267,319
911.339294,321
911.4552,317
911.571106,320
911.687073,311
911.802979,321
911.918823,321
912.034729,322
912.150635,323
912.266602,308
912.382446,323
912.498352,295
912.614197,327
912.730103,311
912.846008,324
792.44574,311
792.56488,353
792.68396,394
792.80304,368
792.92218,329
793.041199,322
793.160339,304
793.279419,339
793.398499,329
793.517578,325
793.636658,316
793.755737,328
793.874817,347
793.993896,339
794.112976,321
794.232056,326
794.351074,329
794.470215,337
794.589233,333
794.708313,321
794.827393,330
794.946411,337
795.065552,333
795.18457,341
795.303589,325
795.422668,345
795.541687,336
795.660767,336
795.779846,317
795.898865,318
796.017883,317
796.136963,322
796.255981,324
796.375061,335
796.49408,324
796.613037,328
796.732117,321
796.851135,315
796.970154,324
797.089233,328
797.208191,313
797.327271,321
797.446228,326
797.565186,333
797.684265,320
797.803223,329
797.922241,331
798.04126,323
798.160278,327
798.279297,315
798.398315,333
798.517273,332
798.636292,329
798.75531,333
798.874268,336
798.993286,336
799.112244,328
799.231323,326
799.350281,323
799.469238,324
799.588257,328
799.707153,332
799.826111,318
799.945129,320
800.064087,327
800.183044,331
800.302063,330
800.421021,331
800.539978,319
800.658936,310
800.777893,338
800.896912,323
801.015747,340
801.134705,315
801.253723,323
801.37262,324
801.491638,329
801.610535,322
801.729492,323
801.84845,310
801.967407,327
802.086243,334
802.205261,333
802.324158,329
802.443115,338
802.562073,322
802.680969,331
802.799927,323
802.918762,330
803.037659,323
803.156677,333
803.275574,318
803.39447,321
803.513428,332
803.632263,325
803.751221,329
803.870117,321
803.989014,314
804.107971,321
804.226746,334
804.345642,320
804.4646,329
804.583496,309
804.702393,331
804.821228,329
804.940125,316
805.059021,327
805.177917,319
805.296814,325
805.415649,328
805.534546,322
805.653442,323
805.772278,326
805.891113,326
806.01001,313
806.128906,330
806.247742,335
806.366577,327
806.485413,317
806.604309,332
806.723145,339
806.84198,329
806.960876,327
807.079712,325
807.198486,324
807.317383,320
807.436218,329
807.554993,335
807.673889,329
807.792725,322
807.91156,335
808.030396,326
808.14917,326
808.268005,311
808.386841,327
808.505676,337
808.624451,333
808.743286,328
808.862122,336
808.980896,321
809.099731,331
809.218506,335
809.337341,326
809.456116,325
809.57489,336
809.693726,323
809.8125,342
809.931274,335
810.050049,325
810.168884,316
810.287659,337
810.406372,333
810.525269,331
810.643982,330
810.762756,327
810.881531,337
811.000305,322
811.11908,332
811.237854,321
811.356567,326
811.475403,322
811.594116,346
811.71283,338
811.831604,317
811.950378,325
812.069153,332
812.187927,330
812.30658,327
812.425415,328
812.544128,331
812.662781,314
812.781616,319
812.900269,323
813.019043,324
813.137756,329
813.256531,328
813.375244,341
813.493896,334
813.612671,326
813.731384,341
813.850037,333
813.96875,334
814.087524,335
814.206238,317
814.324951,332
814.443604,320
814.562256,330
814.68103,321
814.799683,328
814.918335,324
815.037109,325
815.155762,324
815.274475,327
815.393188,322
815.511841,323
815.630554,335
815.749146,326
815.867859,328
815.986572,333
816.105164,322
816.223877,324
816.342529,342
816.461182,329
816.579895,318
816.698486,324
816.817139,338
816.935791,332
817.054504,332
817.173096,336
817.291748,329
817.4104,322
817.529053,310
817.647644,326
817.766235,333
817.884949,322
818.00354,328
818.122192,316
818.240845,318
818.359436,316
818.478088,326
818.59668,315
818.715271,332
818.833923,312
818.952515,316
819.071106,310
819.189758,324
819.30835,324
819.426941,321
819.545532,314
819.664124,330
819.782715,324
819.901306,317
820.019897,319
820.138489,316
820.25708,320
820.375671,315
820.494202,324
820.612732,313
820.731384,321
820.849915,308
820.968506,318
821.087097,324
821.205627,322
821.324158,322
821.442749,317
821.561279,312
821.679871,318
821.798401,312
821.916931,312
822.035461,315
822.154053,307
822.272583,318
822.391174,313
822.509583,335
822.628174,340
822.746704,317
822.865234,312
822.983765,318
823.102295,317
823.220825,315
823.339294,316
823.457825,319
823.576355,319
823.694824,320
823.813354,318
823.931885,324
824.050354,330
824.168884,322
824.287354,321
824.405823,326
824.524353,321
824.642822,328
824.761353,321
824.879822,329
824.998291,315
825.116699,313
825.235291,316
825.353699,307
825.472168,310
825.590637,310
825.709106,319
825.827576,314
825.946045,319
826.064453,312
826.182983,322
826.301392,317
826.4198,324
826.53833,321
826.656738,314
826.775208,316
826.893677,314
827.012024,319
827.130493,329
827.248962,315
827.36731,324
827.485779,320
827.604248,325
827.722595,309
827.841064,306
827.959412,316
828.077942,320
828.196289,329
828.314636,326
828.433105,318
828.551514,313
828.669861,306
828.78833,314
828.906677,310
829.025085,326
829.143433,332
829.261841,313
829.38031,320
829.498657,328
829.617004,319
829.735413,308
829.85376,314
829.972107,314
830.090515,301
830.208862,308
830.327209,317
830.445557,327
830.563904,313
830.682312,322
830.800659,316
830.919006,335
831.037354,328
831.155701,320
831.274048,321
831.392395,305
831.51062,312
831.629028,307
831.747314,309
831.865662,313
831.984009,320
832.102356,309
832.220642,317
832.338928,319
832.457275,318
832.575623,314
832.693909,316
832.812134,312
832.930481,321
833.048828,313
833.167114,311
833.2854,324
833.403687,318
833.521973,302
833.640259,311
833.758545,321
833.876831,315
833.995056,315
834.113281,322
834.231628,310
834.349915,325
834.468201,315
834.586426,322
834.704651,320
834.822998,320
834.941162,311
835.059448,324
835.177673,329
835.295959,317
835.414246,321
835.53241,324
835.650635,316
835.768921,323
835.887146,303
836.005371,320
836.123596,313
836.241821,318
836.360046,315
836.478271,314
836.596497,311
836.714722,316
836.832886,307
836.95105,319
837.069336,331
837.1875,310
837.305725,310
837.423889,313
837.542053,305
837.660339,323
837.778503,329
837.896667,320
838.014832,314
838.132996,319
838.25116,329
838.369385,323
838.487488,307
838.605713,307
838.723877,326
838.84198,325
838.960205,318
839.078308,316
839.196472,320
839.314636,324
839.4328,313
839.550964,321
839.669067,318
839.787231,327
839.905396,320
840.023499,316
840.141602,323
840.259766,325
840.377869,323
840.495972,319
840.614136,317
840.732239,320
840.850342,315
840.968445,319
841.086548,317
841.204651,317
841.322754,316
841.440918,312
841.55896,316
841.677002,300
841.795166,327
841.913208,314
842.031311,312
842.149353,317
842.267456,297
842.385498,318
842.503601,319
842.621643,310
842.739746,328
842.857788,311
842.97583,297
843.093933,309
843.211975,309
843.330017,316
843.44812,309
843.566101,321
843.684204,324
843.802246,312
843.920227,304
844.038269,317
844.156311,312
844.274292,322
844.392395,310
844.510376,318
844.628357,322
844.74646,336
844.864441,318
844.982422,329
845.100403,309
845.218384,322
845.336426,322
845.454468,316
845.572449,313
845.69043,316
845.808411,312
845.926453,325
846.044373,307
846.162354,316
846.280396,313
846.398315,320
846.516296,313
846.634216,309
846.752197,325
846.870178,320
846.988098,316
847.106079,320
847.22406,319
847.34198,307
847.4599,326
847.577881,323
847.695801,301
847.813782,310
847.931641,312
848.049561,332
848.167603,321
848.285461,329
848.403381,315
848.521362,318
848.639221,313
848.75708,327
848.875,308
848.99292,323
849.110901,305
849.22876,321
849.34668,304
849.464539,324
849.582458,326
849.700317,319
849.818176,316
849.936096,311
850.053955,331
850.171875,312
850.289673,311
850.407593,314
850.525452,310
850.643311,321
850.761169,321
850.878967,319
850.996887,301
851.114746,310
851.232544,319
851.350403,315
851.468262,312
851.58606,327
851.703979,308
851.821777,302
851.939636,320
852.057434,321
852.175232,311
852.293091,307
852.410889,318
852.528687,324
852.646545,319
852.764343,319
852.88208,307
852.999939,316
853.117676,309
853.235535,312
853.353271,324
853.471069,315
853.588928,307
853.706604,315
853.824402,309
853.9422,316
854.059998,322
854.177734,339
854.295532,328
854.413269,312
854.531006,317
854.648804,314
854.766541,309
854.884277,326
855.002014,315
855.119751,318
855.237549,302
855.355225,312
855.473022,316
855.590698,315
855.708435,313
855.826172,304
855.943848,320
856.061646,311
856.179321,299
856.296997,314
856.414795,319
856.53241,320
856.650085,322
856.767822,314
856.885559,317
857.003174,312
857.120911,315
857.238586,313
857.356201,305
857.473938,327
857.591614,304
857.709351,319
857.826965,321
857.944641,312
858.062317,333
858.179993,315
858.297668,317
858.415283,319
858.532959,314
858.650574,305
858.768188,311
858.885803,325
859.003479,310
859.121094,315
859.23877,313
859.356384,317
859.473999,312
859.591675,320
859.709229,322
859.826843,323
859.944458,326
860.062012,313
860.179626,320
860.297302,311
860.414856,331
860.532471,322
860.650024,316
860.767639,324
860.885193,326
861.002808,302
861.120361,321
861.237976,319
861.35553,305
861.473022,314
861.590698,306
861.708191,322
861.825745,317
861.943298,320
862.060852,315
862.178406,317
862.295959,321
862.413513,318
862.531006,312
862.64856,312
862.766113,324
862.883667,300
863.00116,322
863.118713,316
863.236206,310
863.353699,320
863.471252,324
863.588745,333
863.706177,311
863.82373,314
863.941162,315
864.058716,317
864.176208,318
864.29364,326
864.411194,316
864.528687,320
864.646118,305
864.763611,314
864.881042,318
864.998535,310
865.116028,314
865.233459,329
865.350891,313
865.468384,322
865.585754,311
865.703308,328
865.820679,301
865.938171,324
866.055542,324
866.173035,316
866.290466,322
866.407837,306
866.52533,317
866.6427,322
866.760071,321
866.877563,332
866.994934,311
867.112305,327
867.229736,313
867.347107,317
867.464539,321
867.58197,320
867.699341,310
867.81665,315
867.934082,312
868.051453,320
868.168823,303
868.286194,317
868.403564,307
868.520935,327
868.638306,325
868.755676,327
868.872986,310
868.990295,307
869.107727,312
869.225037,313
869.342346,332
869.459717,326
869.577026,324
869.694336,325
869.811707,314
869.929016,324
870.046326,311
870.163635,302
870.280945,317
870.398254,329
870.515564,313
870.632812,325
870.750183,323
870.867432,314
870.984741,325
871.102051,326
871.219299,309
871.336609,321
871.453918,314
871.571106,321
871.688416,301
871.805664,321
871.922852,328
872.040222,310
872.157471,326
872.274719,319
872.391968,326
872.509155,320
872.626465,300
872.743652,321
872.860962,313
872.978149,324
873.095337,318
873.212646,307
873.329834,311
873.44696,316
873.564209,327
873.681396,322
873.798645,306
873.915894,325
874.03302,320
874.150208,312
874.267456,313
874.384583,317
874.501831,312
874.618958,319
874.736145,327
874.853333,304
874.970459,308
875.087646,318
875.204834,317
875.32196,317
875.439148,324
875.556274,323
875.673401,310
875.790527,308
875.907715,318
876.024841,308
876.141968,308
876.259094,324
876.376282,326
876.493347,310
876.610474,328
876.7276,317
876.844727,310
876.961853,315
877.078918,314
877.195984,326
877.313171,318
877.430237,320
877.547302,334
877.664368,324
877.781433,312
877.898499,319
878.015625,319
878.13269,316
878.249695,313
878.366821,313
878.483887,314
878.600952,322
878.717957,318
878.834961,326
878.952087,319
879.069092,313
879.186157,317
879.303162,324
879.420227,320
879.537231,324
879.654236,316
879.77124,314
879.888306,318
880.005249,315
880.122314,316
880.239319,314
880.356323,311
880.473328,312
880.590271,303
880.707275,324
880.824341,308
880.941284,317
881.058228,301
881.175232,315
881.292236,312
881.40918,312
881.526123,314
881.643066,316
881.760071,331
881.877014,319
881.993958,296
882.11084,309
882.227783,306
882.344727,315
882.46167,323
882.578613,307
882.695618,316
882.812439,313
882.929382,315
883.046326,328
883.163208,315
883.280151,315
883.397034,305
883.513916,322
883.630798,320
883.747742,310
883.864563,315
883.981506,321
884.098389,314
884.21521,320
884.332153,318
884.448975,328
884.565796,314
884.682678,319
884.7995,312
884.916443,317
885.033264,319
885.150085,320
885.266968,326
885.383789,317
885.500671,318
885.617493,329
885.734314,317
885.851196,321
885.967896,303
886.084717,315
886.201599,322
886.318359,315
886.435181,321
886.552002,327
886.668762,308
886.785645,321
886.902344,336
887.019165,314
887.135925,336
887.252747,331
887.369446,316
887.486267,329
887.603027,317
887.719788,312
887.836548,303
887.953247,306
888.070068,320
888.186829,317
888.303528,318
888.420288,318
888.536987,318
888.653687,320
888.770447,303
888.887146,328
889.003967,309
889.120667,335
889.237305,310
889.354065,316
889.470703,323
889.587463,313
889.704163,321
889.820862,319
889.937561,314
890.054199,317
890.170837,315
890.287598,309
890.404236,325
890.520874,329
890.637634,299
890.754211,316
890.87085,305
890.987549,319
891.104187,323
891.220886,316
891.337463,326
891.454102,317
891.57074,302
891.687378,323
891.804077,307
891.920654,313
892.037231,315
892.15387,316
892.270447,341
892.387085,314
892.503723,316
892.6203,318
892.736877,312
892.853516,318
892.970032,314
893.08667,311
893.203186,310
893.319763,317
893.43634,325
893.552917,319
893.669556,325
893.786011,313
893.902588,314
894.019165,312
894.135681,309
894.252197,325
894.368835,317
894.485291,309
894.601868,335
894.718384,323
894.8349,324
894.951355,318
895.067932,306
895.184448,315
895.300964,316
895.417419,326
895.533936,314
895.650452,311
895.766907,313
895.883423,324
895.999878,308
896.116333,308
896.232849,320
896.349304,310
896.465759,316
896.582214,307
896.698669,314
896.815125,313
896.931641,313
897.048035,332
897.164551,311
897.280884,334
897.397339,318
897.513794,307
897.630249,327
897.746582,326
897.863098,305
897.979431,315
898.095886,316
898.212341,327
898.328674,301
898.445129,322
898.561462,307
898.677795,333
898.794312,312
898.910645,319
899.026978,317
899.143433,305
899.259766,308
899.37616,325
899.492493,313
899.608765,318
899.725159,311
899.841553,331
899.957947,313
900.07428,316
900.190552,326
900.306946,318
900.423157,318
900.53949,317
900.655884,322
900.772156,329
900.888489,313
901.004822,324
901.121033,307
901.237366,318
901.353699,324
901.46991,305
901.586304,304
901.702515,307
901.818787,318
901.93512,327
902.051331,312
902.167603,318
902.283875,323
902.400085,315
902.516418,315
902.632629,310
902.74884,321
902.865112,318
902.981384,309
903.097595,318
903.213867,320
903.330017,322
903.446289,328
903.5625,324
903.67865,323
903.794922,313
903.911072,325
904.027344,329
904.143494,317
904.259705,311
904.375916,308
904.492065,327
904.608215,321
904.724426,315
904.840576,312
904.956726,311
905.072876,325
905.189087,321
905.305176,315
905.421387,327
905.537537,313
905.653687,325
905.769775,321
905.885925,316
906.002014,307
906.118164,307
906.234314,316
906.350403,324
906.466492,314
906.582642,339
906.69873,315
906.814758,314
906.930908,316
907.046936,332
907.163086,320
907.279175,322
907.395264,309
907.511353,310
907.62738,306
907.743408,302
907.859497,319
907.975525,318
908.091553,312
908.207703,326
908.32373,319
908.439758,323
908.555786,326
908.671814,321
908.787842,303
908.90387,319
909.019775,321
909.135864,320
909.251892,302
909.367859,326
909.483826,320
909.599854,318
909.715881,326
909.831848,324
909.947815,317
910.063782,324
910.179749,306
910.295776,331
910.411743,322
910.527649,316
910.643616,318
910.759583,324
910.875488,323
910.991455,321
911.107361,326
911.223267,326
911.339294,311
911.4552,318
911.571106,327
911.687073,323
911.802979,318
911.918823,330
912.034729,316
912.150635,319
912.266602,315
912.382446,323
912.498352,305
912.614197,322
912.730103,317
912.846008,318
