792.44574,316
792.56488,366
792.68396,405
792.80304,382
792.92218,324
793.041199,321
793.160339,331
793.279419,341
793.398499,331
793.517578,317
793.636658,306
793.755737,337
793.874817,350
793.993896,336
794.112976,343
794.232056,324
794.351074,317
794.470215,338
794.589233,334
794.708313,322
794.827393,327
794.946411,336
795.065552,349
795.18457,341
795.303589,340
795.422668,329
795.541687,324
795.660767,347
795.779846,331
795.898865,337
796.017883,332
796.136963,338
796.255981,339
796.375061,334
796.49408,324
796.613037,327
796.732117,342
796.851135,323
796.970154,329
797.089233,333
797.208191,344
797.327271,336
797.446228,332
797.565186,343
797.684265,324
797.803223,334
797.922241,323
798.04126,318
798.160278,329
798.279297,336
798.398315,342
798.517273,336
798.636292,326
798.75531,324
798.874268,338
798.993286,315
799.112244,326
799.231323,327
799.350281,329
799.469238,320
799.588257,340
799.707153,328
799.826111,336
799.945129,331
800.064087,328
800.183044,335
800.302063,338
800.421021,324
800.539978,337
800.658936,324
800.777893,332
800.896912,324
801.015747,324
801.134705,332
801.253723,328
801.37262,331
801.491638,326
801.610535,312
801.729492,321
801.84845,323
801.967407,321
802.086243,330
802.205261,330
802.324158,335
802.443115,322
802.562073,319
802.680969,347
802.799927,312
802.918762,334
803.037659,323
803.156677,338
803.275574,332
803.39447,333
803.513428,331
803.632263,333
803.751221,323
803.870117,334
803.989014,345
804.107971,337
804.226746,333
804.345642,329
804.4646,330
804.583496,328
804.702393,333
804.821228,323
804.940125,328
805.059021,330
805.177917,332
805.296814,338
805.415649,317
805.534546,328
805.653442,312
805.772278,323
805.891113,336
806.01001,333
806.128906,325
806.247742,337
806.366577,326
806.485413,334
806.604309,320
806.723145,350
806.84198,319
806.960876,333
807.079712,318
807.198486,335
807.317383,322
807.436218,337
807.554993,334
807.673889,343
807.792725,325
807.91156,331
808.030396,326
808.14917,331
808.268005,328
808.386841,334
808.505676,325
808.624451,336
808.743286,350
808.862122,336
808.980896,320
809.099731,342
809.218506,333
809.337341,333
809.456116,342
809.57489,332
809.693726,330
809.8125,340
809.931274,345
810.050049,335
810.168884,329
810.287659,334
810.406372,316
810.525269,341
810.643982,332
810.762756,349
810.881531,332
811.000305,340
811.11908,340
811.237854,327
811.356567,334
811.475403,318
811.594116,341
811.71283,336
811.831604,319
811.950378,349
812.069153,319
812.187927,339
812.30658,345
812.425415,354
812.544128,325
812.662781,338
812.781616,339
812.900269,327
813.019043,342
813.137756,334
813.256531,329
813.375244,327
813.493896,329
813.612671,338
813.731384,342
813.850037,331
813.96875,327
814.087524,335
814.206238,338
814.324951,327
814.443604,330
814.562256,332
814.68103,339
814.799683,337
814.918335,332
815.037109,334
815.155762,325
815.274475,347
815.393188,325
815.511841,330
815.630554,323
815.749146,325
815.867859,336
815.986572,336
816.105164,328
816.223877,330
816.342529,335
816.461182,325
816.579895,333
816.698486,328
816.817139,328
816.935791,336
817.054504,321
817.173096,344
817.291748,330
817.4104,322
817.529053,311
817.647644,335
817.766235,336
817.884949,330
818.00354,331
818.122192,326
818.240845,321
818.359436,329
818.478088,324
818.59668,324
818.715271,335
818.833923,328
818.952515,335
819.071106,325
819.189758,323
819.30835,334
819.426941,305
819.545532,313
819.664124,310
819.782715,326
819.901306,312
820.019897,325
820.138489,310
820.25708,329
820.375671,305
820.494202,321
820.612732,313
820.731384,328
820.849915,309
820.968506,327
821.087097,322
821.205627,325
821.324158,319
821.442749,317
821.561279,321
821.679871,323
821.798401,318
821.916931,327
822.035461,325
822.154053,316
822.272583,317
822.391174,314
822.509583,323
822.628174,320
822.746704,328
822.865234,314
822.983765,308
823.102295,319
823.220825,317
823.339294,331
823.457825,320
823.576355,332
823.694824,323
823.813354,311
823.931885,322
824.050354,310
824.168884,309
824.287354,318
824.405823,314
824.524353,317
824.642822,304
824.761353,323
824.879822,322
824.998291,323
825.116699,306
825.235291,333
825.353699,314
825.472168,320
825.590637,323
825.709106,320
825.827576,323
825.946045,310
826.064453,326
826.182983,326
826.301392,331
826.4198,339
826.53833,305
826.656738,331
826.775208,308
826.893677,315
827.012024,307
827.130493,314
827.248962,321
827.36731,317
827.485779,322
827.604248,315
827.722595,299
827.841064,308
827.959412,323
828.077942,305
828.196289,312
828.314636,336
828.433105,328
828.551514,327
828.669861,329
828.78833,318
828.906677,317
829.025085,327
829.143433,315
829.261841,323
829.38031,319
829.498657,317
829.617004,320
829.735413,326
829.85376,324
829.972107,296
830.090515,310
830.208862,317
830.327209,327
830.445557,309
830.563904,307
830.682312,326
830.800659,320
830.919006,317
831.037354,313
831.155701,320
831.274048,319
831.392395,319
831.51062,325
831.629028,320
831.747314,327
831.865662,322
831.984009,308
832.102356,338
832.220642,306
832.338928,321
832.457275,313
832.575623,323
832.693909,322
832.812134,315
832.930481,321
833.048828,324
833.167114,308
833.2854,320
833.403687,312
833.521973,325
833.640259,302
833.758545,320
833.876831,318
833.995056,317
834.113281,317
834.231628,318
834.349915,326
834.468201,314
834.586426,311
834.704651,328
834.822998,323
834.941162,314
835.059448,321
835.177673,309
835.295959,305
835.414246,327
835.53241,318
835.650635,314
835.768921,330
835.887146,318
836.005371,319
836.123596,314
836.241821,321
836.360046,320
836.478271,301
836.596497,315
836.714722,312
836.832886,328
836.95105,304
837.069336,323
837.1875,331
837.305725,326
837.423889,325
837.542053,325
837.660339,313
837.778503,304
837.896667,318
838.014832,315
838.132996,317
838.25116,337
838.369385,307
838.487488,325
838.605713,309
838.723877,319
838.84198,325
838.960205,312
839.078308,324
839.196472,316
839.314636,317
839.4328,309
839.550964,320
839.669067,329
839.787231,316
839.905396,315
840.023499,319
840.141602,319
840.259766,321
840.377869,310
840.495972,313
840.614136,314
840.732239,314
840.850342,317
840.968445,317
841.086548,339
841.204651,305
841.322754,313
841.440918,319
841.55896,315
841.677002,309
841.795166,312
841.913208,320
842.031311,323
842.149353,324
842.267456,311
842.385498,299
842.503601,304
842.621643,313
842.739746,310
842.857788,313
842.97583,323
843.093933,300
843.211975,329
843.330017,314
843.44812,315
843.566101,322
843.684204,329
843.802246,315
843.920227,322
844.038269,314
844.156311,316
844.274292,311
844.392395,322
844.510376,318
844.628357,322
844.74646,319
844.864441,313
844.982422,318
845.100403,307
845.218384,314
845.336426,315
845.454468,325
845.572449,323
845.69043,319
845.808411,312
845.926453,308
846.044373,327
846.162354,326
846.280396,317
846.398315,314
846.516296,324
846.634216,313
846.752197,326
846.870178,327
846.988098,312
847.106079,326
847.22406,311
847.34198,323
847.4599,323
847.577881,306
847.695801,318
847.813782,319
847.931641,314
848.049561,323
848.167603,316
848.285461,322
848.403381,311
848.521362,315
848.639221,302
848.75708,314
848.875,308
848.99292,309
849.110901,312
849.22876,323
849.34668,314
849.464539,315
849.582458,330
849.700317,310
849.818176,329
849.936096,302
850.053955,322
850.171875,322
850.289673,315
850.407593,324
850.525452,321
850.643311,319
850.761169,316
850.878967,313
850.996887,312
851.114746,311
851.232544,321
851.350403,301
851.468262,327
851.58606,322
851.703979,314
851.821777,304
851.939636,319
852.057434,325
852.175232,331
852.293091,318
852.410889,319
852.528687,308
852.646545,324
852.764343,314
852.88208,322
852.999939,306
853.117676,308
853.235535,328
853.353271,320
853.471069,308
853.588928,317
853.706604,329
853.824402,317
853.9422,317
854.059998,303
854.177734,323
854.295532,326
854.413269,339
854.531006,315
854.648804,308
854.766541,325
854.884277,327
855.002014,327
855.119751,304
855.237549,323
855.355225,311
855.473022,323
855.590698,319
855.708435,329
855.826172,308
855.943848,326
856.061646,315
856.179321,312
856.296997,308
856.414795,317
856.53241,321
856.650085,312
856.767822,315
856.885559,323
857.003174,324
857.120911,320
857.238586,312
857.356201,322
857.473938,324
857.591614,308
857.709351,312
857.826965,325
857.944641,310
858.062317,319
858.179993,314
858.297668,325
858.415283,324
858.532959,319
858.650574,309
858.768188,314
858.885803,307
859.003479,313
859.121094,319
859.23877,325
859.356384,319
859.473999,311
859.591675,314
859.709229,328
859.826843,323
859.944458,313
860.062012,314
860.179626,322
860.297302,319
860.414856,312
860.532471,313
860.650024,319
860.767639,309
860.885193,323
861.002808,323
861.120361,312
861.237976,313
861.35553,311
861.473022,316
861.590698,319
861.708191,312
861.825745,312
861.943298,305
862.060852,322
862.178406,304
862.295959,328
862.413513,318
862.531006,305
862.64856,311
862.766113,333
862.883667,298
863.00116,331
863.118713,302
863.236206,316
863.353699,315
863.471252,307
863.588745,309
863.706177,324
863.82373,313
863.941162,317
864.058716,310
864.176208,330
864.29364,319
864.411194,313
864.528687,324
864.646118,329
864.763611,314
864.881042,315
864.998535,305
865.116028,325
865.233459,299
865.350891,314
865.468384,318
865.585754,317
865.703308,314
865.820679,316
865.938171,313
866.055542,301
866.173035,317
866.290466,316
866.407837,293
866.52533,317
866.6427,326
866.760071,321
866.877563,311
866.994934,325
867.112305,322
867.229736,312
867.347107,303
867.464539,314
867.58197,305
867.699341,318
867.81665,309
867.934082,326
868.051453,323
868.168823,307
868.286194,323
868.403564,309
868.520935,317
868.638306,322
868.755676,295
868.872986,319
868.990295,307
869.107727,317
869.225037,316
869.342346,319
869.459717,315
869.577026,328
869.694336,321
869.811707,329
869.929016,316
870.046326,313
870.163635,306
870.280945,338
870.398254,309
870.515564,312
870.632812,306
870.750183,322
870.867432,304
870.984741,317
871.102051,320
871.219299,328
871.336609,315
871.453918,323
871.571106,319
871.688416,310
871.805664,319
871.922852,323
872.040222,310
872.157471,335
872.274719,315
872.391968,327
872.509155,320
872.626465,325
872.743652,311
872.860962,329
872.978149,316
873.095337,324
873.212646,316
873.329834,309
873.44696,312
873.564209,323
873.681396,308
873.798645,327
873.915894,318
874.03302,318
874.150208,325
874.267456,315
874.384583,328
874.501831,323
874.618958,305
874.736145,317
874.853333,302
874.970459,317
875.087646,314
875.204834,312
875.32196,310
875.439148,322
875.556274,317
875.673401,326
875.790527,315
875.907715,319
876.024841,320
876.141968,311
876.259094,323
876.376282,318
876.493347,315
876.610474,323
876.7276,325
876.844727,329
876.961853,304
877.078918,317
877.195984,320
877.313171,324
877.430237,330
877.547302,322
877.664368,311
877.781433,321
877.898499,325
878.015625,316
878.13269,312
878.249695,324
878.366821,328
878.483887,303
878.600952,316
878.717957,309
878.834961,307
878.952087,316
879.069092,314
879.186157,317
879.303162,324
879.420227,308
879.537231,310
879.654236,314
879.77124,325
879.888306,329
880.005249,308
880.122314,313
880.239319,312
880.356323,328
880.473328,317
880.590271,318
880.707275,314
880.824341,331
880.941284,328
881.058228,324
881.175232,335
881.292236,308
881.40918,318
881.526123,314
881.643066,297
881.760071,316
881.877014,322
881.993958,316
882.11084,300
882.227783,320
882.344727,334
882.46167,318
882.578613,314
882.695618,316
882.812439,315
882.929382,322
883.046326,329
883.163208,323
883.280151,309
883.397034,319
883.513916,316
883.630798,320
883.747742,318
883.864563,318
883.981506,327
884.098389,329
884.21521,317
884.332153,317
884.448975,298
884.565796,322
884.682678,314
884.7995,320
884.916443,311
885.033264,324
885.150085,308
885.266968,333
885.383789,313
885.500671,302
885.617493,313
885.734314,316
885.851196,315
885.967896,306
886.084717,321
886.201599,324
886.318359,303
886.435181,311
886.552002,312
886.668762,330
886.785645,310
886.902344,328
887.019165,306
887.135925,305
887.252747,320
887.369446,324
887.486267,312
887.603027,309
887.719788,317
887.836548,317
887.953247,302
888.070068,321
888.186829,309
888.303528,306
888.420288,324
888.536987,317
888.653687,311
888.770447,330
888.887146,309
889.003967,310
889.120667,313
889.237305,318
889.354065,311
889.470703,312
889.587463,320
889.704163,317
889.820862,318
889.937561,329
890.054199,310
890.170837,317
890.287598,330
890.404236,325
890.520874,316
890.637634,315
890.754211,315
890.87085,314
890.987549,309
891.104187,328
891.220886,309
891.337463,313
891.454102,322
891.57074,324
891.687378,317
891.804077,312
891.920654,319
892.037231,330
892.15387,312
892.270447,321
892.387085,314
892.503723,327
892.6203,319
892.736877,321
892.853516,308
892.970032,331
893.08667,313
893.203186,322
893.319763,294
893.43634,322
893.552917,322
893.669556,324
893.786011,319
893.902588,326
894.019165,332
894.135681,332
894.252197,332
894.368835,332
894.485291,314
894.601868,327
894.718384,326
894.8349,343
894.951355,319
895.067932,333
895.184448,319
895.300964,322
895.417419,328
895.533936,313
895.650452,321
895.766907,326
895.883423,316
895.999878,312
896.116333,325
896.232849,319
896.349304,308
896.465759,321
896.582214,314
896.698669,318
896.815125,320
896.931641,322
897.048035,319
897.164551,325
897.280884,313
897.397339,322
897.513794,318
897.630249,329
897.746582,343
897.863098,315
897.979431,307
898.095886,316
898.212341,314
898.328674,322
898.445129,333
898.561462,321
898.677795,314
898.794312,312
898.910645,321
899.026978,323
899.143433,313
899.259766,321
899.37616,308
899.492493,314
899.608765,301
899.725159,317
899.841553,321
899.957947,317
900.07428,330
900.190552,301
900.306946,316
900.423157,310
900.53949,324
900.655884,322
900.772156,321
900.888489,323
901.004822,321
901.121033,305
901.237366,318
901.353699,324
901.46991,311
901.586304,334
901.702515,307
901.818787,324
901.93512,306
902.051331,315
902.167603,316
902.283875,317
902.400085,326
902.516418,325
902.632629,316
902.74884,322
902.865112,315
902.981384,319
903.097595,317
903.213867,331
903.330017,321
903.446289,315
903.5625,322
903.67865,320
903.794922,301
903.911072,326
904.027344,318
904.143494,338
904.259705,307
904.375916,303
904.492065,322
904.608215,322
904.724426,329
904.840576,334
904.956726,325
905.072876,302
905.189087,313
905.305176,326
905.421387,315
905.537537,322
905.653687,314
905.769775,324
905.885925,321
906.002014,314
906.118164,312
906.234314,320
906.350403,307
906.466492,331
906.582642,327
906.69873,319
906.814758,308
906.930908,312
907.046936,325
907.163086,320
907.279175,307
907.395264,323
907.511353,317
907.62738,328
907.743408,326
907.859497,315
907.975525,322
908.091553,315
908.207703,317
908.32373,320
908.439758,315
908.555786,322
908.671814,314
908.787842,311
908.90387,329
909.019775,322
909.135864,316
909.251892,323
909.367859,327
909.483826,323
909.599854,326
909.715881,324
909.831848,313
909.947815,333
910.063782,316
910.179749,325
910.295776,314
910.411743,325
910.527649,307
910.643616,310
910.759583,308
910.875488,328
910.991455,316
911.107361,328
911.223267,320
911.339294,321
911.4552,322
911.571106,322
911.687073,324
911.802979,320
911.918823,322
912.034729,319
912.150635,317
912.266602,335
912.382446,314
912.498352,312
912.614197,302
912.730103,313
912.846008,322
792.44574,305
792.56488,343
792.68396,398
792.80304,390
792.92218,328
793.041199,312
793.160339,333
793.279419,333
793.398499,329
793.517578,314
793.636658,320
793.755737,319
793.874817,352
793.993896,351
794.112976,333
794.232056,319
794.351074,332
794.470215,324
794.589233,333
794.708313,330
794.827393,335
794.946411,326
795.065552,328
795.18457,342
795.303589,329
795.422668,330
795.541687,334
795.660767,323
795.779846,335
795.898865,328
796.017883,336
796.136963,332
796.255981,334
796.375061,333
796.49408,325
796.613037,328
796.732117,322
796.851135,330
796.970154,341
797.089233,328
797.208191,322
797.327271,332
797.446228,323
797.565186,321
797.684265,328
797.803223,319
797.922241,343
798.04126,322
798.160278,324
798.279297,321
798.398315,337
798.517273,326
798.636292,329
798.75531,333
798.874268,329
798.993286,337
799.112244,330
799.231323,339
799.350281,316
799.469238,309
799.588257,332
799.707153,342
799.826111,321
799.945129,331
800.064087,334
800.183044,332
800.302063,335
800.421021,334
800.539978,333
800.658936,317
800.777893,336
800.896912,335
801.015747,315
801.134705,339
801.253723,318
801.37262,317
801.491638,310
801.610535,332
801.729492,333
801.84845,325
801.967407,330
802.086243,328
802.205261,339
802.324158,328
802.443115,321
802.562073,330
802.680969,336
802.799927,320
802.918762,329
803.037659,342
803.156677,331
803.275574,331
803.39447,331
803.513428,332
803.632263,321
803.751221,339
803.870117,331
803.989014,339
804.107971,330
804.226746,346
804.345642,326
804.4646,336
804.583496,320
804.702393,341
804.821228,325
804.940125,330
805.059021,321
805.177917,329
805.296814,321
805.415649,326
805.534546,317
805.653442,326
805.772278,323
805.891113,343
806.01001,333
806.128906,329
806.247742,325
806.366577,327
806.485413,322
806.604309,345
806.723145,335
806.84198,318
806.960876,333
807.079712,330
807.198486,333
807.317383,334
807.436218,329
807.554993,332
807.673889,317
807.792725,319
807.91156,326
808.030396,343
808.14917,329
808.268005,337
808.386841,319
808.505676,328
808.624451,341
808.743286,337
808.862122,330
808.980896,318
809.099731,343
809.218506,342
809.337341,327
809.456116,339
809.57489,332
809.693726,324
809.8125,337
809.931274,350
810.050049,339
810.168884,343
810.287659,341
810.406372,326
810.525269,327
810.643982,349
810.762756,319
810.881531,334
811.000305,331
811.11908,316
811.237854,342
811.356567,348
811.475403,328
811.594116,321
811.71283,339
811.831604,331
811.950378,330
812.069153,332
812.187927,324
812.30658,330
812.425415,315
812.544128,337
812.662781,331
812.781616,326
812.900269,340
813.019043,325
813.137756,334
813.256531,334
813.375244,337
813.493896,331
813.612671,341
813.731384,338
813.850037,334
813.96875,341
814.087524,332
814.206238,330
814.324951,341
814.443604,337
814.562256,326
814.68103,328
814.799683,334
814.918335,327
815.037109,327
815.155762,348
815.274475,317
815.393188,323
815.511841,331
815.630554,341
815.749146,327
815.867859,336
815.986572,322
816.105164,331
816.223877,321
816.342529,337
816.461182,334
816.579895,329
816.698486,348
816.817139,337
816.935791,318
817.054504,324
817.173096,334
817.291748,328
817.4104,324
817.529053,337
817.647644,334
817.766235,328
817.884949,326
818.00354,338
818.122192,334
818.240845,323
818.359436,326
818.478088,335
818.59668,319
818.715271,326
818.833923,321
818.952515,328
819.071106,311
819.189758,313
819.30835,324
819.426941,311
819.545532,325
819.664124,321
819.782715,335
819.901306,328
820.019897,320
820.138489,332
820.25708,322
820.375671,314
820.494202,314
820.612732,311
820.731384,323
820.849915,326
820.968506,308
821.087097,326
821.205627,320
821.324158,314
821.442749,302
821.561279,317
821.679871,334
821.798401,327
821.916931,318
822.035461,316
822.154053,318
822.272583,323
822.391174,304
822.509583,335
822.628174,316
822.746704,305
822.865234,316
822.983765,316
823.102295,316
823.220825,314
823.339294,318
823.457825,333
823.576355,308
823.694824,329
823.813354,312
823.931885,314
824.050354,321
824.168884,326
824.287354,327
824.405823,305
824.524353,324
824.642822,328
824.761353,327
824.879822,325
824.998291,317
825.116699,309
825.235291,303
825.353699,320
825.472168,331
825.590637,311
825.709106,318
825.827576,315
825.946045,313
826.064453,324
826.182983,315
826.301392,324
826.4198,329
826.53833,318
826.656738,312
826.775208,311
826.893677,325
827.012024,328
827.130493,319
827.248962,306
827.36731,318
827.485779,310
827.604248,321
827.722595,328
827.841064,321
827.959412,320
828.077942,303
828.196289,318
828.314636,313
828.433105,329
828.551514,309
828.669861,318
828.78833,313
828.906677,313
829.025085,309
829.143433,326
829.261841,316
829.38031,320
829.498657,321
829.617004,322
829.735413,316
829.85376,319
829.972107,317
830.090515,328
830.208862,324
830.327209,310
830.445557,302
830.563904,322
830.682312,321
830.800659,327
830.919006,319
831.037354,326
831.155701,315
831.274048,313
831.392395,307
831.51062,309
831.629028,308
831.747314,328
831.865662,314
831.984009,304
832.102356,332
832.220642,320
832.338928,313
832.457275,305
832.575623,311
832.693909,324
832.812134,316
832.930481,319
833.048828,318
833.167114,318
833.2854,306
833.403687,317
833.521973,320
833.640259,331
833.758545,309
833.876831,301
833.995056,312
834.113281,320
834.231628,322
834.349915,330
834.468201,312
834.586426,319
834.704651,327
834.822998,317
834.941162,320
835.059448,321
835.177673,313
835.295959,330
835.414246,319
835.53241,317
835.650635,329
835.768921,315
835.887146,318
836.005371,317
836.123596,303
836.241821,318
836.360046,324
836.478271,325
836.596497,322
836.714722,314
836.832886,311
836.95105,314
837.069336,326
837.1875,313
837.305725,332
837.423889,318
837.542053,324
837.660339,323
837.778503,317
837.896667,322
838.014832,316
838.132996,322
838.25116,319
838.369385,317
838.487488,328
838.605713,312
838.723877,319
838.84198,322
838.960205,326
839.078308,317
839.196472,330
839.314636,316
839.4328,315
839.550964,321
839.669067,317
839.787231,335
839.905396,318
840.023499,317
840.141602,324
840.259766,328
840.377869,313
840.495972,326
840.614136,317
840.732239,318
840.850342,327
840.968445,311
841.086548,320
841.204651,328
841.322754,317
841.440918,316
841.55896,329
841.677002,323
841.795166,325
841.913208,318
842.031311,315
842.149353,320
842.267456,313
842.385498,325
842.503601,318
842.621643,323
842.739746,313
842.857788,321
842.97583,332
843.093933,304
843.211975,328
843.330017,313
843.44812,321
843.566101,316
843.684204,310
843.802246,320
843.920227,329
844.038269,322
844.156311,305
844.274292,316
844.392395,313
844.510376,323
844.628357,312
844.74646,308
844.864441,307
844.982422,314
845.100403,331
845.218384,305
845.336426,320
845.454468,313
845.572449,316
845.69043,313
845.808411,315
845.926453,311
846.044373,314
846.162354,322
846.280396,320
846.398315,312
846.516296,304
846.634216,323
846.752197,313
846.870178,313
846.988098,315
847.106079,311
847.22406,317
847.34198,321
847.4599,314
847.577881,326
847.695801,303
847.813782,317
847.931641,316
848.049561,314
848.167603,343
848.285461,315
848.403381,304
848.521362,312
848.639221,298
848.75708,320
848.875,321
848.99292,306
849.110901,318
849.22876,320
849.34668,314
849.464539,310
849.582458,324
849.700317,320
849.818176,324
849.936096,321
850.053955,319
850.171875,313
850.289673,320
850.407593,322
850.525452,307
850.643311,319
850.761169,321
850.878967,333
850.996887,323
851.114746,323
851.232544,318
851.350403,330
851.468262,308
851.58606,321
851.703979,318
851.821777,323
851.939636,320
852.057434,318
852.175232,306
852.293091,317
852.410889,329
852.528687,316
852.646545,322
852.764343,311
852.88208,310
852.999939,316
853.117676,319
853.235535,308
853.353271,306
853.471069,307
853.588928,329
853.706604,315
853.824402,322
853.9422,336
854.059998,324
854.177734,321
854.295532,310
854.413269,325
854.531006,319
854.648804,300
854.766541,310
854.884277,317
855.002014,312
855.119751,312
855.237549,308
855.355225,326
855.473022,311
855.590698,319
855.708435,317
855.826172,326
855.943848,319
856.061646,312
856.179321,304
856.296997,317
856.414795,320
856.53241,316
856.650085,309
856.767822,315
856.885559,309
857.003174,316
857.120911,318
857.238586,320
857.356201,327
857.473938,320
857.591614,317
857.709351,311
857.826965,311
857.944641,326
858.062317,315
858.179993,316
858.297668,301
858.415283,319
858.532959,306
858.650574,331
858.768188,313
858.885803,317
859.003479,306
859.121094,339
859.23877,328
859.356384,315
859.473999,316
859.591675,334
859.709229,317
859.826843,317
859.944458,315
860.062012,315
860.179626,321
860.297302,310
860.414856,305
860.532471,317
860.650024,328
860.767639,321
860.885193,325
861.002808,316
861.120361,318
861.237976,320
861.35553,316
861.473022,333
861.590698,318
861.708191,319
861.825745,309
861.943298,308
862.060852,323
862.178406,299
862.295959,301
862.413513,320
862.531006,311
862.64856,332
862.766113,330
862.883667,320
863.00116,307
863.118713,328
863.236206,321
863.353699,317
863.471252,319
863.588745,323
863.706177,315
863.82373,327
863.941162,314
864.058716,307
864.176208,318
864.29364,320
864.411194,307
864.528687,321
864.646118,329
864.763611,317
864.881042,319
864.998535,308
865.116028,298
865.233459,308
865.350891,319
865.468384,328
865.585754,321
865.703308,325
865.820679,305
865.938171,331
866.055542,314
866.173035,317
866.290466,315
866.407837,311
866.52533,310
866.6427,317
866.760071,320
866.877563,318
866.994934,321
867.112305,324
867.229736,319
867.347107,312
867.464539,317
867.58197,314
867.699341,314
867.81665,321
867.934082,322
868.051453,320
868.168823,323
868.286194,314
868.403564,304
868.520935,312
868.638306,317
868.755676,326
868.872986,307
868.990295,317
869.107727,316
869.225037,318
869.342346,316
869.459717,322
869.577026,312
869.694336,320
869.811707,309
869.929016,322
870.046326,328
870.163635,319
870.280945,320
870.398254,317
870.515564,311
870.632812,313
870.750183,315
870.867432,308
870.984741,322
871.102051,317
871.219299,316
871.336609,323
871.453918,315
871.571106,310
871.688416,305
871.805664,323
871.922852,307
872.040222,315
872.157471,317
872.274719,303
872.391968,320
872.509155,308
872.626465,322
872.743652,328
872.860962,308
872.978149,315
873.095337,310
873.212646,337
873.329834,324
873.44696,320
873.564209,320
873.681396,313
873.798645,317
873.915894,319
874.03302,315
874.150208,325
874.267456,309
874.384583,335
874.501831,325
874.618958,315
874.736145,309
874.853333,313
874.970459,326
875.087646,327
875.204834,315
875.32196,333
875.439148,318
875.556274,322
875.673401,310
875.790527,321
875.907715,315
876.024841,328
876.141968,332
876.259094,317
876.376282,325
876.493347,331
876.610474,314
876.7276,320
876.844727,315
876.961853,322
877.078918,321
877.195984,330
877.313171,320
877.430237,324
877.547302,331
877.664368,325
877.781433,315
877.898499,321
878.015625,307
878.13269,318
878.249695,321
878.366821,331
878.483887,318
878.600952,317
878.717957,298
878.834961,325
878.952087,323
879.069092,329
879.186157,325
879.303162,324
879.420227,315
879.537231,316
879.654236,318
879.77124,315
879.888306,310
880.005249,327
880.122314,315
880.239319,326
880.356323,323
880.473328,313
880.590271,327
880.707275,323
880.824341,319
880.941284,318
881.058228,309
881.175232,310
881.292236,301
881.40918,325
881.526123,317
881.643066,310
881.760071,321
881.877014,310
881.993958,320
882.11084,317
882.227783,316
882.344727,320
882.46167,319
882.578613,310
882.695618,306
882.812439,316
882.929382,300
883.046326,318
883.163208,326
883.280151,330
883.397034,314
883.513916,320
883.630798,326
883.747742,325
883.864563,314
883.981506,311
884.098389,319
884.21521,305
884.332153,325
884.448975,315
884.565796,317
884.682678,322
884.7995,318
884.916443,325
885.033264,312
885.150085,314
885.266968,319
885.383789,318
885.500671,317
885.617493,320
885.734314,313
885.851196,310
885.967896,320
886.084717,319
886.201599,305
886.318359,328
886.435181,312
886.552002,324
886.668762,314
886.785645,320
886.902344,308
887.019165,316
887.135925,319
887.252747,324
887.369446,325
887.486267,329
887.603027,323
887.719788,315
887.836548,320
887.953247,323
888.070068,328
888.186829,321
888.303528,306
888.420288,311
888.536987,319
888.653687,306
888.770447,320
888.887146,317
889.003967,320
889.120667,318
889.237305,316
889.354065,313
889.470703,314
889.587463,324
889.704163,312
889.820862,322
889.937561,320
890.054199,309
890.170837,311
890.287598,316
890.404236,324
890.520874,313
890.637634,310
890.754211,323
890.87085,319
890.987549,317
891.104187,321
891.220886,321
891.337463,319
891.454102,314
891.57074,320
891.687378,319
891.804077,312
891.920654,329
892.037231,317
892.15387,317
892.270447,316
892.387085,329
892.503723,319
892.6203,316
892.736877,316
892.853516,335
892.970032,321
893.08667,320
893.203186,319
893.319763,311
893.43634,330
893.552917,311
893.669556,324
893.786011,323
893.902588,309
894.019165,317
894.135681,305
894.252197,328
894.368835,323
894.485291,328
894.601868,323
894.718384,315
894.8349,328
894.951355,322
895.067932,314
895.184448,323
895.300964,326
895.417419,311
895.533936,326
895.650452,317
895.766907,319
895.883423,340
895.999878,305
896.116333,313
896.232849,313
896.349304,334
896.465759,312
896.582214,326
896.698669,325
896.815125,315
896.931641,325
897.048035,320
897.164551,325
897.280884,328
897.397339,306
897.513794,325
897.630249,315
897.746582,338
897.863098,311
897.979431,327
898.095886,324
898.212341,312
898.328674,325
898.445129,325
898.561462,307
898.677795,337
898.794312,293
898.910645,317
899.026978,326
899.143433,323
899.259766,324
899.37616,325
899.492493,311
899.608765,316
899.725159,309
899.841553,325
899.957947,312
900.07428,328
900.190552,308
900.306946,314
900.423157,316
900.53949,322
900.655884,313
900.772156,323
900.888489,321
901.004822,326
901.121033,322
901.237366,314
901.353699,320
901.46991,318
901.586304,321
901.702515,319
901.818787,316
901.93512,332
902.051331,314
902.167603,307
902.283875,331
902.400085,330
902.516418,314
902.632629,334
902.74884,325
902.865112,322
902.981384,314
903.097595,329
903.213867,317
903.330017,322
903.446289,312
903.5625,309
903.67865,322
903.794922,320
903.911072,321
904.027344,316
904.143494,328
904.259705,325
904.375916,319
904.492065,316
904.608215,318
904.724426,324
904.840576,327
904.956726,319
905.072876,314
905.189087,325
905.305176,325
905.421387,316
905.537537,315
905.653687,322
905.769775,315
905.885925,316
906.002014,323
906.118164,321
906.234314,321
906.350403,316
906.466492,322
906.582642,316
906.69873,320
906.814758,314
906.930908,316
907.046936,331
907.163086,322
907.279175,324
907.395264,323
907.511353,326
907.62738,326
907.743408,318
907.859497,319
907.975525,316
908.091553,315
908.207703,320
908.32373,315
908.439758,319
908.555786,321
908.671814,317
908.787842,315
908.90387,312
909.019775,318
909.135864,325
909.251892,312
909.367859,315
909.483826,319
909.599854,313
909.715881,314
909.831848,323
909.947815,332
910.063782,320
910.179749,325
910.295776,326
910.411743,313
910.527649,328
910.643616,308
910.759583,323
910.875488,317
910.991455,321
911.107361,327
911.223267,313
911.339294,323
911.4552,320
911.571106,305
911.687073,326
911.802979,324
911.918823,330
912.034729,313
912.150635,331
912.266602,312
912.382446,315
912.498352,305
912.614197,325
912.730103,317
912.846008,336
792.44574,311
792.56488,347
792.68396,401
792.80304,381
792.92218,332
793.041199,328
793.160339,327
793.279419,335
793.398499,319
793.517578,304
793.636658,317
793.755737,340
793.874817,334
793.993896,341
794.112976,341
794.232056,324
794.351074,319
794.470215,331
794.589233,325
794.708313,325
794.827393,319
794.946411,342
795.065552,337
795.18457,354
795.303589,327
795.422668,338
795.541687,331
795.660767,341
795.779846,320
795.898865,330
796.017883,323
796.136963,321
796.255981,322
796.375061,334
796.49408,341
796.613037,324
796.732117,337
796.851135,325
796.970154,328
797.089233,320
797.208191,331
797.327271,337
797.446228,336
797.565186,336
797.684265,319
797.803223,336
797.922241,323
798.04126,342
798.160278,318
798.279297,322
798.398315,330
798.517273,331
798.636292,319
798.75531,355
798.874268,331
798.993286,329
799.112244,319
799.231323,319
799.350281,342
799.469238,331
799.588257,338
799.707153,329
799.826111,322
799.945129,339
800.064087,332
800.183044,321
800.302063,320
800.421021,333
800.539978,326
800.658936,312
800.777893,313
800.896912,330
801.015747,337
801.134705,323
801.253723,333
801.37262,323
801.491638,324
801.610535,334
801.729492,325
801.84845,335
801.967407,325
802.086243,335
802.205261,325
802.324158,337
802.443115,329
802.562073,336
802.680969,335
802.799927,339
802.918762,325
803.037659,346
803.156677,327
803.275574,331
803.39447,347
803.513428,331
803.632263,330
803.751221,336
803.870117,325
803.989014,321
804.107971,325
804.226746,334
804.345642,330
804.4646,346
804.583496,334
804.702393,322
804.821228,325
804.940125,331
805.059021,329
805.177917,343
805.296814,345
805.415649,339
805.534546,323
805.653442,348
805.772278,338
805.891113,335
806.01001,337
806.128906,331
806.247742,325
806.366577,336
806.485413,330
806.604309,333
806.723145,319
806.84198,329
806.960876,330
807.079712,325
807.198486,321
807.317383,338
807.436218,326
807.554993,330
807.673889,348
807.792725,341
807.91156,343
808.030396,340
808.14917,330
808.268005,329
808.386841,330
808.505676,332
808.624451,326
808.743286,331
808.862122,332
808.980896,323
809.099731,336
809.218506,350
809.337341,333
809.456116,331
809.57489,332
809.693726,341
809.8125,332
809.931274,326
810.050049,334
810.168884,335
810.287659,340
810.406372,331
810.525269,347
810.643982,336
810.762756,333
810.881531,317
811.000305,319
811.11908,334
811.237854,333
811.356567,337
811.475403,340
811.594116,325
811.71283,341
811.831604,328
811.950378,337
812.069153,347
812.187927,327
812.30658,320
812.425415,329
812.544128,341
812.662781,335
812.781616,332
812.900269,339
813.019043,324
813.137756,333
813.256531,343
813.375244,325
813.493896,322
813.612671,332
813.731384,326
813.850037,328
813.96875,329
814.087524,334
814.206238,344
814.324951,317
814.443604,342
814.562256,351
814.68103,319
814.799683,333
814.918335,340
815.037109,330
815.155762,336
815.274475,329
815.393188,339
815.511841,328
815.630554,335
815.749146,321
815.867859,326
815.986572,328
816.105164,325
816.223877,338
816.342529,330
816.461182,328
816.579895,334
816.698486,340
816.817139,345
816.935791,321
817.054504,339
817.173096,322
817.291748,330
817.4104,339
817.529053,327
817.647644,324
817.766235,321
817.884949,337
818.00354,323
818.122192,327
818.240845,334
818.359436,326
818.478088,330
818.59668,327
818.715271,317
818.833923,335
818.952515,316
819.071106,325
819.189758,325
819.30835,328
819.426941,333
819.545532,320
819.664124,314
819.782715,320
819.901306,335
820.019897,321
820.138489,333
820.25708,313
820.375671,319
820.494202,325
820.612732,322
820.731384,333
820.849915,319
820.968506,332
821.087097,320
821.205627,322
821.324158,310
821.442749,329
821.561279,320
821.679871,318
821.798401,327
821.916931,312
822.035461,317
822.154053,331
822.272583,315
822.391174,313
822.509583,316
822.628174,320
822.746704,323
822.865234,330
822.983765,320
823.102295,322
823.220825,326
823.339294,322
823.457825,309
823.576355,320
823.694824,318
823.813354,324
823.931885,331
824.050354,321
824.168884,338
824.287354,317
824.405823,306
824.524353,320
824.642822,323
824.761353,319
824.879822,319
824.998291,327
825.116699,316
825.235291,305
825.353699,322
825.472168,330
825.590637,323
825.709106,321
825.827576,311
825.946045,321
826.064453,319
826.182983,309
826.301392,316
826.4198,315
826.53833,320
826.656738,318
826.775208,317
826.893677,331
827.012024,319
827.130493,316
827.248962,323
827.36731,320
827.485779,315
827.604248,319
827.722595,319
827.841064,310
827.959412,321
828.077942,321
828.196289,324
828.314636,315
828.433105,310
828.551514,326
828.669861,320
828.78833,318
828.906677,326
829.025085,322
829.143433,329
829.261841,312
829.38031,321
829.498657,307
829.617004,306
829.735413,320
829.85376,323
829.972107,322
830.090515,314
830.208862,325
830.327209,323
830.445557,329
830.563904,323
830.682312,333
830.800659,311
830.919006,322
831.037354,307
831.155701,318
831.274048,312
831.392395,327
831.51062,310
831.629028,315
831.747314,320
831.865662,306
831.984009,319
832.102356,308
832.220642,309
832.338928,310
832.457275,317
832.575623,312
832.693909,319
832.812134,331
832.930481,316
833.048828,326
833.167114,303
833.2854,300
833.403687,331
833.521973,311
833.640259,317
833.758545,310
833.876831,319
833.995056,317
834.113281,323
834.231628,313
834.349915,308
834.468201,328
834.586426,308
834.704651,330
834.822998,321
834.941162,311
835.059448,312
835.177673,314
835.295959,324
835.414246,313
835.53241,322
835.650635,320
835.768921,322
835.887146,306
836.005371,315
836.123596,316
836.241821,309
836.360046,322
836.478271,314
836.596497,318
836.714722,332
836.832886,304
836.95105,320
837.069336,311
837.1875,343
837.305725,325
837.423889,314
837.542053,324
837.660339,317
837.778503,339
837.896667,320
838.014832,323
838.132996,316
838.25116,317
838.369385,321
838.487488,323
838.605713,334
838.723877,319
838.84198,327
838.960205,322
839.078308,304
839.196472,317
839.314636,328
839.4328,317
839.550964,326
839.669067,318
839.787231,332
839.905396,313
840.023499,312
840.141602,324
840.259766,317
840.377869,319
840.495972,326
840.614136,321
840.732239,330
840.850342,314
840.968445,326
841.086548,314
841.204651,319
841.322754,322
841.440918,321
841.55896,310
841.677002,327
841.795166,308
841.913208,315
842.031311,315
842.149353,317
842.267456,322
842.385498,329
842.503601,309
842.621643,326
842.739746,304
842.857788,325
842.97583,315
843.093933,324
843.211975,311
843.330017,320
843.44812,303
843.566101,328
843.684204,312
843.802246,317
843.920227,324
844.038269,313
844.156311,316
844.274292,311
844.392395,325
844.510376,315
844.628357,321
844.74646,314
844.864441,312
844.982422,324
845.100403,302
845.218384,321
845.336426,307
845.454468,323
845.572449,313
845.69043,315
845.808411,331
845.926453,317
846.044373,332
846.162354,309
846.280396,324
846.398315,313
846.516296,314
846.634216,315
846.752197,309
846.870178,313
846.988098,319
847.106079,311
847.22406,335
847.34198,306
847.4599,318
847.577881,315
847.695801,325
847.813782,335
847.931641,319
848.049561,328
848.167603,309
848.285461,331
848.403381,314
848.521362,323
848.639221,329
848.75708,317
848.875,321
848.99292,320
849.110901,316
849.22876,315
849.34668,323
849.464539,315
849.582458,316
849.700317,327
849.818176,313
849.936096,321
850.053955,318
850.171875,328
850.289673,320
850.407593,333
850.525452,315
850.643311,315
850.761169,304
850.878967,313
850.996887,314
851.114746,314
851.232544,325
851.350403,331
851.468262,307
851.58606,329
851.703979,313
851.821777,307
851.939636,306
852.057434,317
852.175232,321
852.293091,328
852.410889,298
852.528687,332
852.646545,314
852.764343,316
852.88208,307
852.999939,329
853.117676,326
853.235535,320
853.353271,314
853.471069,311
853.588928,308
853.706604,310
853.824402,311
853.9422,314
854.059998,303
854.177734,305
854.295532,324
854.413269,320
854.531006,331
854.648804,327
854.766541,317
854.884277,321
855.002014,316
855.119751,322
855.237549,324
855.355225,316
855.473022,308
855.590698,317
855.708435,316
855.826172,318
855.943848,316
856.061646,334
856.179321,309
856.296997,318
856.414795,322
856.53241,321
856.650085,318
856.767822,309
856.885559,324
857.003174,317
857.120911,317
857.238586,327
857.356201,317
857.473938,317
857.591614,335
857.709351,319
857.826965,318
857.944641,312
858.062317,322
858.179993,325
858.297668,327
858.415283,322
858.532959,320
858.650574,336
858.768188,313
858.885803,326
859.003479,325
859.121094,314
859.23877,305
859.356384,318
859.473999,318
859.591675,328
859.709229,328
859.826843,304
859.944458,332
860.062012,316
860.179626,319
860.297302,337
860.414856,327
860.532471,333
860.650024,313
860.767639,325
860.885193,330
861.002808,322
861.120361,313
861.237976,317
861.35553,314
861.473022,309
861.590698,326
861.708191,318
861.825745,312
861.943298,308
862.060852,314
862.178406,312
862.295959,318
862.413513,315
862.531006,319
862.64856,311
862.766113,318
862.883667,315
863.00116,318
863.118713,304
863.236206,312
863.353699,329
863.471252,324
863.588745,319
863.706177,316
863.82373,320
863.941162,320
864.058716,322
864.176208,317
864.29364,342
864.411194,322
864.528687,315
864.646118,326
864.763611,306
864.881042,313
864.998535,322
865.116028,314
865.233459,309
865.350891,318
865.468384,320
865.585754,312
865.703308,322
865.820679,329
865.938171,312
866.055542,316
866.173035,333
866.290466,333
866.407837,319
866.52533,297
866.6427,319
866.760071,317
866.877563,321
866.994934,320
867.112305,320
867.229736,319
867.347107,309
867.464539,316
867.58197,327
867.699341,307
867.81665,323
867.934082,313
868.051453,318
868.168823,323
868.286194,325
868.403564,330
868.520935,321
868.638306,314
868.755676,337
868.872986,323
868.990295,335
869.107727,315
869.225037,333
869.342346,322
869.459717,319
869.577026,309
869.694336,327
869.811707,314
869.929016,322
870.046326,305
870.163635,329
870.280945,327
870.398254,306
870.515564,323
870.632812,325
870.750183,330
870.867432,322
870.984741,325
871.102051,337
871.219299,321
871.336609,320
871.453918,316
871.571106,324
871.688416,326
871.805664,324
871.922852,315
872.040222,331
872.157471,314
872.274719,313
872.391968,317
872.509155,318
872.626465,314
872.743652,322
872.860962,318
872.978149,332
873.095337,311
873.212646,326
873.329834,313
873.44696,324
873.564209,325
873.681396,327
873.798645,317
873.915894,314
874.03302,316
874.150208,337
874.267456,313
874.384583,331
874.501831,309
874.618958,319
874.736145,318
874.853333,327
874.970459,304
875.087646,324
875.204834,323
875.32196,314
875.439148,311
875.556274,316
875.673401,315
875.790527,322
875.907715,309
876.024841,336
876.141968,314
876.259094,329
876.376282,324
876.493347,323
876.610474,319
876.7276,303
876.844727,310
876.961853,322
877.078918,310
877.195984,318
877.313171,325
877.430237,322
877.547302,321
877.664368,321
877.781433,329
877.898499,317
878.015625,311
878.13269,321
878.249695,299
878.366821,325
878.483887,313
878.600952,325
878.717957,315
878.834961,329
878.952087,325
879.069092,323
879.186157,322
879.303162,331
879.420227,317
879.537231,325
879.654236,316
879.77124,321
879.888306,313
880.005249,331
880.122314,323
880.239319,320
880.356323,316
880.473328,315
880.590271,322
880.707275,324
880.824341,315
880.941284,328
881.058228,310
881.175232,327
881.292236,332
881.40918,314
881.526123,312
881.643066,323
881.760071,324
881.877014,332
881.993958,324
882.11084,324
882.227783,319
882.344727,323
882.46167,328
882.578613,309
882.695618,316
882.812439,325
882.929382,307
883.046326,330
883.163208,312
883.280151,307
883.397034,306
883.513916,308
883.630798,318
883.747742,317
883.864563,321
883.981506,320
884.098389,310
884.21521,313
884.332153,321
884.448975,310
884.565796,320
884.682678,316
884.7995,333
884.916443,315
885.033264,320
885.150085,315
885.266968,322
885.383789,333
885.500671,317
885.617493,325
885.734314,333
885.851196,313
885.967896,315
886.084717,331
886.201599,326
886.318359,311
886.435181,314
886.552002,328
886.668762,326
886.785645,316
886.902344,321
887.019165,316
887.135925,324
887.252747,319
887.369446,332
887.486267,311
887.603027,308
887.719788,325
887.836548,309
887.953247,308
888.070068,321
888.186829,328
888.303528,328
888.420288,326
888.536987,312
888.653687,311
888.770447,317
888.887146,319
889.003967,306
889.120667,324
889.237305,321
889.354065,309
889.470703,322
889.587463,327
889.704163,319
889.820862,329
889.937561,319
890.054199,308
890.170837,320
890.287598,322
890.404236,310
890.520874,314
890.637634,328
890.754211,320
890.87085,318
890.987549,324
891.104187,313
891.220886,334
891.337463,317
891.454102,314
891.57074,302
891.687378,322
891.804077,312
891.920654,319
892.037231,313
892.15387,335
892.270447,314
892.387085,328
892.503723,333
892.6203,319
892.736877,321
892.853516,322
892.970032,318
893.08667,332
893.203186,315
893.319763,314
893.43634,314
893.552917,327
893.669556,318
893.786011,320
893.902588,325
894.019165,313
894.135681,305
894.252197,330
894.368835,300
894.485291,325
894.601868,319
894.718384,335
894.8349,322
894.951355,329
895.067932,335
895.184448,329
895.300964,332
895.417419,315
895.533936,323
895.650452,327
895.766907,322
895.883423,326
895.999878,318
896.116333,333
896.232849,308
896.349304,313
896.465759,321
896.582214,321
896.698669,320
896.815125,324
896.931641,323
897.048035,329
897.164551,330
897.280884,313
897.397339,314
897.513794,327
897.630249,326
897.746582,333
897.863098,324
897.979431,321
898.095886,320
898.212341,331
898.328674,323
898.445129,320
898.561462,308
898.677795,320
898.794312,313
898.910645,324
899.026978,311
899.143433,321
899.259766,323
899.37616,329
899.492493,330
899.608765,337
899.725159,316
899.841553,326
899.957947,324
900.07428,326
900.190552,320
900.306946,330
900.423157,315
900.53949,332
900.655884,322
900.772156,332
900.888489,325
901.004822,315
901.121033,314
901.237366,327
901.353699,309
901.46991,329
901.586304,312
901.702515,331
901.818787,330
901.93512,312
902.051331,312
902.167603,322
902.283875,332
902.400085,322
902.516418,305
902.632629,319
902.74884,322
902.865112,327
902.981384,314
903.097595,320
903.213867,318
903.330017,334
903.446289,322
903.5625,319
903.67865,310
903.794922,331
903.911072,324
904.027344,326
904.143494,322
904.259705,311
904.375916,313
904.492065,320
904.608215,315
904.724426,312
904.840576,327
904.956726,318
905.072876,323
905.189087,327
905.305176,320
905.421387,331
905.537537,320
905.653687,323
905.769775,309
905.885925,322
906.002014,321
906.118164,329
906.234314,330
906.350403,325
906.466492,325
906.582642,316
906.69873,320
906.814758,323
906.930908,314
907.046936,303
907.163086,321
907.279175,311
907.395264,320
907.511353,336
907.62738,324
907.743408,325
907.859497,326
907.975525,324
908.091553,317
908.207703,316
908.32373,307
908.439758,332
908.555786,320
908.671814,326
908.787842,325
908.90387,311
909.019775,330
909.135864,318
909.251892,321
909.367859,318
909.483826,326
909.599854,329
909.715881,323
909.831848,326
909.947815,315
910.063782,326
910.179749,322
910.295776,315
910.411743,322
910.527649,314
910.643616,330
910.759583,335
910.875488,310
910.991455,309
911.107361,313
911.223267,303
911.339294,312
911.4552,323
911.571106,330
911.687073,315
911.802979,323
911.918823,317
912.034729,323
912.150635,330
912.266602,324
912.382446,328
912.498352,312
912.614197,314
912.730103,341
912.846008,316
