792.44574,298
792.56488,331
792.68396,387
792.80304,366
792.92218,338
793.041199,315
793.160339,304
793.279419,324
793.398499,317
793.517578,308
793.636658,301
793.755737,330
793.874817,338
793.993896,329
794.112976,313
794.232056,311
794.351074,326
794.470215,322
794.589233,327
794.708313,307
794.827393,312
794.946411,321
795.065552,324
795.18457,328
795.303589,325
795.422668,315
795.541687,320
795.660767,337
795.779846,319
795.898865,341
796.017883,326
796.136963,332
796.255981,326
796.375061,322
796.49408,325
796.613037,324
796.732117,322
796.851135,319
796.970154,329
797.089233,310
797.208191,318
797.327271,336
797.446228,330
797.565186,317
797.684265,327
797.803223,316
797.922241,325
798.04126,313
798.160278,324
798.279297,324
798.398315,318
798.517273,324
798.636292,333
798.75531,312
798.874268,337
798.993286,322
799.112244,327
799.231323,323
799.350281,311
799.469238,317
799.588257,322
799.707153,316
799.826111,325
799.945129,315
800.064087,323
800.183044,318
800.302063,309
800.421021,329
800.539978,311
800.658936,323
800.777893,327
800.896912,308
801.015747,311
801.134705,317
801.253723,320
801.37262,330
801.491638,317
801.610535,311
801.729492,332
801.84845,316
801.967407,327
802.086243,306
802.205261,332
802.324158,329
802.443115,315
802.562073,316
802.680969,324
802.799927,322
802.918762,336
803.037659,324
803.156677,328
803.275574,327
803.39447,308
803.513428,308
803.632263,324
803.751221,319
803.870117,310
803.989014,309
804.107971,330
804.226746,326
804.345642,308
804.4646,322
804.583496,327
804.702393,326
804.821228,322
804.940125,326
805.059021,311
805.177917,312
805.296814,312
805.415649,317
805.534546,340
805.653442,308
805.772278,326
805.891113,312
806.01001,321
806.128906,318
806.247742,331
806.366577,313
806.485413,329
806.604309,316
806.723145,325
806.84198,303
806.960876,325
807.079712,310
807.198486,321
807.317383,312
807.436218,319
807.554993,322
807.673889,325
807.792725,325
807.91156,322
808.030396,311
808.14917,319
808.268005,300
808.386841,324
808.505676,316
808.624451,312
808.743286,314
808.862122,315
808.980896,304
809.099731,320
809.218506,321
809.337341,320
809.456116,327
809.57489,320
809.693726,320
809.8125,321
809.931274,317
810.050049,319
810.168884,314
810.287659,319
810.406372,308
810.525269,324
810.643982,322
810.762756,311
810.881531,313
811.000305,320
811.11908,319
811.237854,334
811.356567,315
811.475403,320
811.594116,316
811.71283,321
811.831604,307
811.950378,320
812.069153,314
812.187927,325
812.30658,314
812.425415,320
812.544128,324
812.662781,324
812.781616,333
812.900269,319
813.019043,323
813.137756,325
813.256531,323
813.375244,332
813.493896,314
813.612671,322
813.731384,304
813.850037,317
813.96875,324
814.087524,325
814.206238,324
814.324951,318
814.443604,307
814.562256,309
814.68103,314
814.799683,318
814.918335,316
815.037109,320
815.155762,312
815.274475,322
815.393188,329
815.511841,330
815.630554,327
815.749146,315
815.867859,325
815.986572,318
816.105164,308
816.223877,319
816.342529,319
816.461182,311
816.579895,315
816.698486,319
816.817139,326
816.935791,327
817.054504,313
817.173096,315
817.291748,303
817.4104,316
817.529053,305
817.647644,324
817.766235,321
817.884949,326
818.00354,324
818.122192,313
818.240845,318
818.359436,319
818.478088,320
818.59668,311
818.715271,308
818.833923,320
818.952515,306
819.071106,306
819.189758,320
819.30835,306
819.426941,346
819.545532,316
819.664124,315
819.782715,315
819.901306,317
820.019897,303
820.138489,305
820.25708,325
820.375671,313
820.494202,312
820.612732,326
820.731384,318
820.849915,307
820.968506,313
821.087097,324
821.205627,328
821.324158,303
821.442749,299
821.561279,323
821.679871,309
821.798401,317
821.916931,315
822.035461,313
822.154053,319
822.272583,316
822.391174,321
822.509583,311
822.628174,325
822.746704,310
822.865234,315
822.983765,311
823.102295,312
823.220825,316
823.339294,319
823.457825,313
823.576355,327
823.694824,318
823.813354,309
823.931885,321
824.050354,316
824.168884,311
824.287354,324
824.405823,321
824.524353,319
824.642822,311
824.761353,321
824.879822,313
824.998291,311
825.116699,325
825.235291,316
825.353699,311
825.472168,315
825.590637,313
825.709106,334
825.827576,297
825.946045,318
826.064453,320
826.182983,315
826.301392,310
826.4198,321
826.53833,327
826.656738,314
826.775208,322
826.893677,315
827.012024,308
827.130493,322
827.248962,311
827.36731,311
827.485779,322
827.604248,305
827.722595,320
827.841064,322
827.959412,326
828.077942,315
828.196289,312
828.314636,322
828.433105,312
828.551514,319
828.669861,317
828.78833,316
828.906677,321
829.025085,325
829.143433,321
829.261841,307
829.38031,302
829.498657,327
829.617004,318
829.735413,315
829.85376,315
829.972107,313
830.090515,320
830.208862,313
830.327209,325
830.445557,318
830.563904,310
830.682312,305
830.800659,324
830.919006,333
831.037354,308
831.155701,300
831.274048,327
831.392395,310
831.51062,312
831.629028,313
831.747314,313
831.865662,311
831.984009,313
832.102356,308
832.220642,316
832.338928,318
832.457275,317
832.575623,312
832.693909,315
832.812134,317
832.930481,319
833.048828,319
833.167114,312
833.2854,315
833.403687,315
833.521973,318
833.640259,317
833.758545,335
833.876831,318
833.995056,314
834.113281,307
834.231628,320
834.349915,304
834.468201,321
834.586426,316
834.704651,319
834.822998,318
834.941162,314
835.059448,304
835.177673,322
835.295959,311
835.414246,309
835.53241,320
835.650635,316
835.768921,314
835.887146,321
836.005371,314
836.123596,329
836.241821,311
836.360046,314
836.478271,314
836.596497,314
836.714722,318
836.832886,325
836.95105,316
837.069336,319
837.1875,316
837.305725,319
837.423889,310
837.542053,332
837.660339,311
837.778503,319
837.896667,311
838.014832,317
838.132996,316
838.25116,317
838.369385,310
838.487488,322
838.605713,314
838.723877,319
838.84198,302
838.960205,320
839.078308,309
839.196472,320
839.314636,310
839.4328,309
839.550964,313
839.669067,329
839.787231,318
839.905396,321
840.023499,296
840.141602,321
840.259766,316
840.377869,311
840.495972,305
840.614136,304
840.732239,319
840.850342,312
840.968445,331
841.086548,335
841.204651,316
841.322754,311
841.440918,321
841.55896,315
841.677002,315
841.795166,316
841.913208,320
842.031311,323
842.149353,327
842.267456,306
842.385498,306
842.503601,313
842.621643,320
842.739746,321
842.857788,307
842.97583,309
843.093933,306
843.211975,315
843.330017,320
843.44812,324
843.566101,311
843.684204,320
843.802246,309
843.920227,324
844.038269,309
844.156311,325
844.274292,308
844.392395,322
844.510376,314
844.628357,304
844.74646,303
844.864441,314
844.982422,302
845.100403,305
845.218384,309
845.336426,303
845.454468,315
845.572449,319
845.69043,305
845.808411,317
845.926453,316
846.044373,317
846.162354,323
846.280396,314
846.398315,312
846.516296,318
846.634216,310
846.752197,317
846.870178,306
846.988098,315
847.106079,318
847.22406,324
847.34198,313
847.4599,319
847.577881,303
847.695801,299
847.813782,307
847.931641,317
848.049561,310
848.167603,317
848.285461,311
848.403381,316
848.521362,316
848.639221,302
848.75708,299
848.875,319
848.99292,331
849.110901,316
849.22876,308
849.34668,320
849.464539,313
849.582458,329
849.700317,310
849.818176,311
849.936096,301
850.053955,320
850.171875,320
850.289673,320
850.407593,309
850.525452,317
850.643311,321
850.761169,314
850.878967,313
850.996887,303
851.114746,324
851.232544,313
851.350403,312
851.468262,323
851.58606,298
851.703979,317
851.821777,314
851.939636,317
852.057434,305
852.175232,330
852.293091,311
852.410889,326
852.528687,308
852.646545,311
852.764343,307
852.88208,324
852.999939,319
853.117676,321
853.235535,317
853.353271,325
853.471069,313
853.588928,325
853.706604,319
853.824402,320
853.9422,303
854.059998,326
854.177734,322
854.295532,313
854.413269,305
854.531006,326
854.648804,329
854.766541,313
854.884277,312
855.002014,314
855.119751,311
855.237549,325
855.355225,311
855.473022,335
855.590698,309
855.708435,314
855.826172,314
855.943848,297
856.061646,319
856.179321,332
856.296997,314
856.414795,334
856.53241,314
856.650085,327
856.767822,308
856.885559,318
857.003174,321
857.120911,322
857.238586,328
857.356201,312
857.473938,314
857.591614,323
857.709351,317
857.826965,312
857.944641,315
858.062317,327
858.179993,316
858.297668,309
858.415283,326
858.532959,315
858.650574,317
858.768188,310
858.885803,311
859.003479,320
859.121094,324
859.23877,327
859.356384,313
859.473999,329
859.591675,302
859.709229,315
859.826843,315
859.944458,330
860.062012,302
860.179626,309
860.297302,322
860.414856,318
860.532471,316
860.650024,319
860.767639,312
860.885193,315
861.002808,319
861.120361,323
861.237976,311
861.35553,318
861.473022,309
861.590698,324
861.708191,296
861.825745,322
861.943298,322
862.060852,316
862.178406,301
862.295959,334
862.413513,310
862.531006,319
862.64856,310
862.766113,315
862.883667,310
863.00116,321
863.118713,308
863.236206,314
863.353699,305
863.471252,318
863.588745,313
863.706177,320
863.82373,309
863.941162,319
864.058716,315
864.176208,303
864.29364,315
864.411194,316
864.528687,314
864.646118,321
864.763611,316
864.881042,327
864.998535,304
865.116028,326
865.233459,302
865.350891,309
865.468384,312
865.585754,328
865.703308,308
865.820679,322
865.938171,308
866.055542,325
866.173035,313
866.290466,319
866.407837,314
866.52533,310
866.6427,320
866.760071,312
866.877563,310
866.994934,316
867.112305,315
867.229736,331
867.347107,307
867.464539,318
867.58197,306
867.699341,315
867.81665,302
867.934082,317
868.051453,324
868.168823,308
868.286194,331
868.403564,323
868.520935,301
868.638306,338
868.755676,310
868.872986,311
868.990295,319
869.107727,320
869.225037,313
869.342346,324
869.459717,304
869.577026,322
869.694336,305
869.811707,318
869.929016,306
870.046326,307
870.163635,317
870.280945,319
870.398254,313
870.515564,323
870.632812,311
870.750183,309
870.867432,315
870.984741,335
871.102051,318
871.219299,317
871.336609,321
871.453918,321
871.571106,309
871.688416,309
871.805664,312
871.922852,333
872.040222,315
872.157471,317
872.274719,313
872.391968,316
872.509155,319
872.626465,314
872.743652,300
872.860962,313
872.978149,314
873.095337,321
873.212646,299
873.329834,311
873.44696,314
873.564209,316
873.681396,317
873.798645,319
873.915894,311
874.03302,324
874.150208,310
874.267456,326
874.384583,313
874.501831,320
874.618958,318
874.736145,318
874.853333,320
874.970459,314
875.087646,323
875.204834,313
875.32196,317
875.439148,319
875.556274,315
875.673401,317
875.790527,317
875.907715,312
876.024841,312
876.141968,327
876.259094,311
876.376282,322
876.493347,315
876.610474,311
876.7276,325
876.844727,315
876.961853,336
877.078918,330
877.195984,316
877.313171,328
877.430237,303
877.547302,310
877.664368,314
877.781433,325
877.898499,318
878.015625,324
878.13269,322
878.249695,324
878.366821,317
878.483887,298
878.600952,316
878.717957,319
878.834961,319
878.952087,313
879.069092,318
879.186157,324
879.303162,312
879.420227,308
879.537231,321
879.654236,319
879.77124,315
879.888306,315
880.005249,308
880.122314,316
880.239319,328
880.356323,323
880.473328,315
880.590271,321
880.707275,314
880.824341,311
880.941284,324
881.058228,310
881.175232,323
881.292236,315
881.40918,320
881.526123,319
881.643066,326
881.760071,315
881.877014,308
881.993958,315
882.11084,319
882.227783,317
882.344727,314
882.46167,310
882.578613,298
882.695618,321
882.812439,306
882.929382,313
883.046326,296
883.163208,324
883.280151,323
883.397034,325
883.513916,321
883.630798,322
883.747742,307
883.864563,307
883.981506,322
884.098389,311
884.21521,311
884.332153,321
884.448975,307
884.565796,326
884.682678,319
884.7995,317
884.916443,321
885.033264,314
885.150085,320
885.266968,324
885.383789,305
885.500671,304
885.617493,321
885.734314,328
885.851196,306
885.967896,330
886.084717,321
886.201599,324
886.318359,313
886.435181,309
886.552002,302
886.668762,310
886.785645,314
886.902344,309
887.019165,298
887.135925,307
887.252747,307
887.369446,314
887.486267,313
887.603027,325
887.719788,313
887.836548,325
887.953247,328
888.070068,329
888.186829,316
888.303528,321
888.420288,324
888.536987,323
888.653687,320
888.770447,307
888.887146,301
889.003967,322
889.120667,328
889.237305,331
889.354065,324
889.470703,329
889.587463,319
889.704163,330
889.820862,311
889.937561,312
890.054199,326
890.170837,317
890.287598,293
890.404236,326
890.520874,297
890.637634,329
890.754211,308
890.87085,311
890.987549,315
891.104187,318
891.220886,320
891.337463,310
891.454102,321
891.57074,325
891.687378,322
891.804077,322
891.920654,315
892.037231,321
892.15387,303
892.270447,320
892.387085,313
892.503723,319
892.6203,315
892.736877,319
892.853516,308
892.970032,325
893.08667,313
893.203186,319
893.319763,310
893.43634,318
893.552917,319
893.669556,326
893.786011,318
893.902588,331
894.019165,311
894.135681,319
894.252197,309
894.368835,322
894.485291,322
894.601868,311
894.718384,320
894.8349,327
894.951355,308
895.067932,316
895.184448,313
895.300964,314
895.417419,304
895.533936,322
895.650452,312
895.766907,309
895.883423,314
895.999878,316
896.116333,313
896.232849,315
896.349304,313
896.465759,314
896.582214,306
896.698669,322
896.815125,319
896.931641,317
897.048035,322
897.164551,317
897.280884,321
897.397339,325
897.513794,322
897.630249,320
897.746582,310
897.863098,318
897.979431,313
898.095886,327
898.212341,311
898.328674,304
898.445129,318
898.561462,334
898.677795,309
898.794312,316
898.910645,314
899.026978,325
899.143433,316
899.259766,316
899.37616,303
899.492493,325
899.608765,328
899.725159,316
899.841553,305
899.957947,325
900.07428,302
900.190552,323
900.306946,325
900.423157,323
900.53949,321
900.655884,311
900.772156,311
900.888489,326
901.004822,316
901.121033,325
901.237366,305
901.353699,316
901.46991,316
901.586304,333
901.702515,313
901.818787,316
901.93512,309
902.051331,324
902.167603,304
902.283875,315
902.400085,315
902.516418,330
902.632629,324
902.74884,311
902.865112,312
902.981384,315
903.097595,320
903.213867,329
903.330017,308
903.446289,319
903.5625,322
903.67865,318
903.794922,320
903.911072,319
904.027344,307
904.143494,325
904.259705,327
904.375916,309
904.492065,324
904.608215,307
904.724426,313
904.840576,323
904.956726,304
905.072876,325
905.189087,312
905.305176,316
905.421387,308
905.537537,332
905.653687,313
905.769775,330
905.885925,315
906.002014,324
906.118164,306
906.234314,332
906.350403,321
906.466492,321
906.582642,302
906.69873,312
906.814758,315
906.930908,319
907.046936,308
907.163086,324
907.279175,312
907.395264,314
907.511353,310
907.62738,305
907.743408,319
907.859497,313
907.975525,311
908.091553,315
908.207703,309
908.32373,322
908.439758,305
908.555786,327
908.671814,324
908.787842,322
908.90387,319
909.019775,323
909.135864,309
909.251892,323
909.367859,306
909.483826,325
909.599854,326
909.715881,316
909.831848,321
909.947815,325
910.063782,319
910.179749,307
910.295776,310
910.411743,321
910.527649,321
910.643616,327
910.759583,309
910.875488,319
910.991455,326
911.107361,303
911.223267,326
911.339294,323
911.4552,308
911.571106,326
911.687073,323
911.802979,314
911.918823,311
912.034729,322
912.150635,303
912.266602,315
912.382446,306
912.498352,313
912.614197,316
912.730103,317
912.846008,314
792.44574,303
792.56488,351
792.68396,382
792.80304,357
792.92218,322
793.041199,299
793.160339,299
793.279419,337
793.398499,312
793.517578,315
793.636658,315
793.755737,333
793.874817,332
793.993896,341
794.112976,325
794.232056,307
794.351074,316
794.470215,328
794.589233,312
794.708313,326
794.827393,313
794.946411,302
795.065552,328
795.18457,321
795.303589,315
795.422668,311
795.541687,324
795.660767,331
795.779846,319
795.898865,322
796.017883,319
796.136963,311
796.255981,319
796.375061,333
796.49408,330
796.613037,328
796.732117,312
796.851135,324
796.970154,326
797.089233,317
797.208191,329
797.327271,309
797.446228,321
797.565186,323
797.684265,322
797.803223,322
797.922241,314
798.04126,308
798.160278,316
798.279297,332
798.398315,324
798.517273,320
798.636292,325
798.75531,307
798.874268,321
798.993286,334
799.112244,307
799.231323,312
799.350281,314
799.469238,316
799.588257,329
799.707153,327
799.826111,318
799.945129,316
800.064087,315
800.183044,336
800.302063,314
800.421021,324
800.539978,325
800.658936,322
800.777893,332
800.896912,323
801.015747,325
801.134705,327
801.253723,324
801.37262,323
801.491638,319
801.610535,320
801.729492,321
801.84845,318
801.967407,321
802.086243,314
802.205261,327
802.324158,318
802.443115,328
802.562073,325
802.680969,318
802.799927,323
802.918762,331
803.037659,325
803.156677,309
803.275574,326
803.39447,321
803.513428,324
803.632263,304
803.751221,324
803.870117,318
803.989014,324
804.107971,321
804.226746,323
804.345642,323
804.4646,311
804.583496,313
804.702393,318
804.821228,319
804.940125,319
805.059021,316
805.177917,330
805.296814,314
805.415649,310
805.534546,323
805.653442,319
805.772278,333
805.891113,320
806.01001,323
806.128906,324
806.247742,313
806.366577,320
806.485413,314
806.604309,314
806.723145,317
806.84198,319
806.960876,321
807.079712,332
807.198486,314
807.317383,309
807.436218,309
807.554993,319
807.673889,311
807.792725,307
807.91156,317
808.030396,323
808.14917,318
808.268005,313
808.386841,320
808.505676,319
808.624451,320
808.743286,333
808.862122,320
808.980896,310
809.099731,318
809.218506,317
809.337341,314
809.456116,307
809.57489,304
809.693726,303
809.8125,327
809.931274,312
810.050049,316
810.168884,319
810.287659,322
810.406372,330
810.525269,321
810.643982,319
810.762756,329
810.881531,313
811.000305,319
811.11908,312
811.237854,316
811.356567,316
811.475403,309
811.594116,318
811.71283,304
811.831604,326
811.950378,322
812.069153,317
812.187927,322
812.30658,322
812.425415,310
812.544128,322
812.662781,327
812.781616,321
812.900269,322
813.019043,310
813.137756,322
813.256531,331
813.375244,312
813.493896,308
813.612671,315
813.731384,318
813.850037,317
813.96875,331
814.087524,314
814.206238,323
814.324951,318
814.443604,332
814.562256,315
814.68103,322
814.799683,310
814.918335,317
815.037109,300
815.155762,334
815.274475,324
815.393188,312
815.511841,308
815.630554,310
815.749146,322
815.867859,321
815.986572,322
816.105164,313
816.223877,318
816.342529,329
816.461182,307
816.579895,309
816.698486,322
816.817139,315
816.935791,312
817.054504,311
817.173096,330
817.291748,321
817.4104,321
817.529053,330
817.647644,318
817.766235,319
817.884949,325
818.00354,323
818.122192,325
818.240845,324
818.359436,323
818.478088,316
818.59668,325
818.715271,310
818.833923,329
818.952515,312
819.071106,327
819.189758,317
819.30835,315
819.426941,313
819.545532,325
819.664124,311
819.782715,321
819.901306,312
820.019897,328
820.138489,321
820.25708,304
820.375671,315
820.494202,308
820.612732,320
820.731384,323
820.849915,328
820.968506,313
821.087097,318
821.205627,302
821.324158,311
821.442749,316
821.561279,314
821.679871,324
821.798401,316
821.916931,325
822.035461,311
822.154053,313
822.272583,331
822.391174,323
822.509583,317
822.628174,312
822.746704,326
822.865234,324
822.983765,323
823.102295,316
823.220825,309
823.339294,315
823.457825,318
823.576355,315
823.694824,326
823.813354,313
823.931885,310
824.050354,318
824.168884,318
824.287354,305
824.405823,323
824.524353,336
824.642822,322
824.761353,323
824.879822,330
824.998291,316
825.116699,329
825.235291,313
825.353699,313
825.472168,316
825.590637,315
825.709106,319
825.827576,316
825.946045,326
826.064453,322
826.182983,312
826.301392,310
826.4198,310
826.53833,307
826.656738,317
826.775208,310
826.893677,323
827.012024,314
827.130493,317
827.248962,321
827.36731,316
827.485779,315
827.604248,325
827.722595,318
827.841064,325
827.959412,306
828.077942,322
828.196289,312
828.314636,320
828.433105,306
828.551514,314
828.669861,327
828.78833,307
828.906677,309
829.025085,325
829.143433,309
829.261841,305
829.38031,314
829.498657,320
829.617004,325
829.735413,316
829.85376,333
829.972107,317
830.090515,308
830.208862,319
830.327209,322
830.445557,303
830.563904,320
830.682312,317
830.800659,322
830.919006,315
831.037354,318
831.155701,313
831.274048,330
831.392395,315
831.51062,320
831.629028,313
831.747314,328
831.865662,322
831.984009,323
832.102356,319
832.220642,309
832.338928,308
832.457275,320
832.575623,303
832.693909,318
832.812134,305
832.930481,317
833.048828,328
833.167114,315
833.2854,309
833.403687,328
833.521973,311
833.640259,320
833.758545,319
833.876831,318
833.995056,318
834.113281,312
834.231628,302
834.349915,314
834.468201,319
834.586426,320
834.704651,321
834.822998,307
834.941162,323
835.059448,307
835.177673,297
835.295959,320
835.414246,313
835.53241,302
835.650635,315
835.768921,327
835.887146,314
836.005371,323
836.123596,315
836.241821,321
836.360046,318
836.478271,312
836.596497,311
836.714722,325
836.832886,307
836.95105,319
837.069336,316
837.1875,323
837.305725,326
837.423889,317
837.542053,315
837.660339,313
837.778503,305
837.896667,319
838.014832,317
838.132996,327
838.25116,318
838.369385,315
838.487488,319
838.605713,320
838.723877,314
838.84198,315
838.960205,321
839.078308,326
839.196472,329
839.314636,304
839.4328,314
839.550964,310
839.669067,323
839.787231,320
839.905396,321
840.023499,303
840.141602,331
840.259766,307
840.377869,314
840.495972,317
840.614136,305
840.732239,331
840.850342,305
840.968445,310
841.086548,313
841.204651,310
841.322754,315
841.440918,308
841.55896,318
841.677002,319
841.795166,313
841.913208,321
842.031311,313
842.149353,309
842.267456,323
842.385498,320
842.503601,321
842.621643,307
842.739746,316
842.857788,314
842.97583,320
843.093933,318
843.211975,321
843.330017,315
843.44812,312
843.566101,306
843.684204,315
843.802246,328
843.920227,312
844.038269,314
844.156311,321
844.274292,322
844.392395,328
844.510376,318
844.628357,312
844.74646,320
844.864441,309
844.982422,310
845.100403,307
845.218384,317
845.336426,295
845.454468,313
845.572449,308
845.69043,315
845.808411,307
845.926453,313
846.044373,321
846.162354,318
846.280396,315
846.398315,320
846.516296,311
846.634216,322
846.752197,331
846.870178,315
846.988098,328
847.106079,308
847.22406,316
847.34198,315
847.4599,306
847.577881,309
847.695801,318
847.813782,327
847.931641,314
848.049561,308
848.167603,316
848.285461,319
848.403381,303
848.521362,312
848.639221,323
848.75708,305
848.875,307
848.99292,325
849.110901,313
849.22876,319
849.34668,318
849.464539,318
849.582458,321
849.700317,321
849.818176,299
849.936096,319
850.053955,311
850.171875,308
850.289673,313
850.407593,324
850.525452,307
850.643311,321
850.761169,313
850.878967,315
850.996887,313
851.114746,310
851.232544,306
851.350403,318
851.468262,307
851.58606,333
851.703979,314
851.821777,307
851.939636,321
852.057434,320
852.175232,308
852.293091,321
852.410889,310
852.528687,308
852.646545,317
852.764343,314
852.88208,323
852.999939,309
853.117676,311
853.235535,317
853.353271,317
853.471069,325
853.588928,316
853.706604,315
853.824402,311
853.9422,319
854.059998,300
854.177734,309
854.295532,326
854.413269,316
854.531006,311
854.648804,312
854.766541,319
854.884277,315
855.002014,316
855.119751,315
855.237549,314
855.355225,327
855.473022,331
855.590698,315
855.708435,297
855.826172,324
855.943848,304
856.061646,320
856.179321,314
856.296997,316
856.414795,314
856.53241,310
856.650085,319
856.767822,316
856.885559,298
857.003174,327
857.120911,314
857.238586,317
857.356201,319
857.473938,313
857.591614,324
857.709351,310
857.826965,322
857.944641,317
858.062317,319
858.179993,329
858.297668,306
858.415283,320
858.532959,315
858.650574,308
858.768188,318
858.885803,315
859.003479,313
859.121094,312
859.23877,306
859.356384,311
859.473999,314
859.591675,313
859.709229,308
859.826843,317
859.944458,314
860.062012,311
860.179626,319
860.297302,309
860.414856,317
860.532471,320
860.650024,324
860.767639,322
860.885193,322
861.002808,310
861.120361,322
861.237976,324
861.35553,323
861.473022,314
861.590698,305
861.708191,317
861.825745,318
861.943298,325
862.060852,315
862.178406,313
862.295959,322
862.413513,320
862.531006,318
862.64856,312
862.766113,300
862.883667,318
863.00116,305
863.118713,330
863.236206,326
863.353699,320
863.471252,309
863.588745,324
863.706177,316
863.82373,312
863.941162,315
864.058716,310
864.176208,308
864.29364,315
864.411194,331
864.528687,295
864.646118,304
864.763611,303
864.881042,315
864.998535,312
865.116028,313
865.233459,311
865.350891,310
865.468384,313
865.585754,313
865.703308,322
865.820679,315
865.938171,314
866.055542,314
866.173035,309
866.290466,314
866.407837,332
866.52533,316
866.6427,309
866.760071,310
866.877563,322
866.994934,300
867.112305,322
867.229736,313
867.347107,322
867.464539,312
867.58197,307
867.699341,306
867.81665,324
867.934082,320
868.051453,301
868.168823,322
868.286194,317
868.403564,306
868.520935,309
868.638306,307
868.755676,316
868.872986,317
868.990295,309
869.107727,317
869.225037,325
869.342346,326
869.459717,310
869.577026,318
869.694336,323
869.811707,311
869.929016,323
870.046326,312
870.163635,325
870.280945,318
870.398254,321
870.515564,308
870.632812,321
870.750183,319
870.867432,319
870.984741,314
871.102051,325
871.219299,314
871.336609,326
871.453918,318
871.571106,320
871.688416,317
871.805664,314
871.922852,311
872.040222,307
872.157471,316
872.274719,319
872.391968,316
872.509155,332
872.626465,319
872.743652,314
872.860962,321
872.978149,308
873.095337,319
873.212646,315
873.329834,315
873.44696,322
873.564209,314
873.681396,320
873.798645,313
873.915894,313
874.03302,313
874.150208,310
874.267456,309
874.384583,318
874.501831,311
874.618958,324
874.736145,314
874.853333,315
874.970459,317
875.087646,315
875.204834,318
875.32196,310
875.439148,313
875.556274,321
875.673401,319
875.790527,325
875.907715,311
876.024841,315
876.141968,311
876.259094,312
876.376282,318
876.493347,326
876.610474,330
876.7276,323
876.844727,308
876.961853,312
877.078918,314
877.195984,327
877.313171,324
877.430237,318
877.547302,327
877.664368,308
877.781433,329
877.898499,321
878.015625,317
878.13269,319
878.249695,304
878.366821,317
878.483887,317
878.600952,320
878.717957,315
878.834961,314
878.952087,317
879.069092,318
879.186157,318
879.303162,322
879.420227,311
879.537231,321
879.654236,311
879.77124,319
879.888306,311
880.005249,308
880.122314,304
880.239319,317
880.356323,310
880.473328,319
880.590271,317
880.707275,329
880.824341,312
880.941284,325
881.058228,319
881.175232,310
881.292236,310
881.40918,321
881.526123,312
881.643066,309
881.760071,340
881.877014,320
881.993958,316
882.11084,324
882.227783,314
882.344727,315
882.46167,320
882.578613,323
882.695618,307
882.812439,314
882.929382,319
883.046326,311
883.163208,322
883.280151,312
883.397034,327
883.513916,316
883.630798,308
883.747742,316
883.864563,325
883.981506,315
884.098389,316
884.21521,319
884.332153,312
884.448975,332
884.565796,332
884.682678,313
884.7995,319
884.916443,313
885.033264,311
885.150085,318
885.266968,305
885.383789,322
885.500671,292
885.617493,323
885.734314,319
885.851196,320
885.967896,310
886.084717,321
886.201599,312
886.318359,315
886.435181,318
886.552002,323
886.668762,317
886.785645,323
886.902344,326
887.019165,311
887.135925,321
887.252747,310
887.369446,306
887.486267,313
887.603027,319
887.719788,335
887.836548,313
887.953247,316
888.070068,313
888.186829,317
888.303528,314
888.420288,322
888.536987,307
888.653687,323
888.770447,317
888.887146,327
889.003967,312
889.120667,317
889.237305,323
889.354065,314
889.470703,327
889.587463,319
889.704163,320
889.820862,313
889.937561,313
890.054199,310
890.170837,333
890.287598,322
890.404236,331
890.520874,325
890.637634,316
890.754211,323
890.87085,315
890.987549,320
891.104187,322
891.220886,315
891.337463,305
891.454102,314
891.57074,329
891.687378,316
891.804077,303
891.920654,314
892.037231,308
892.15387,311
892.270447,308
892.387085,329
892.503723,303
892.6203,311
892.736877,317
892.853516,308
892.970032,313
893.08667,332
893.203186,317
893.319763,309
893.43634,306
893.552917,324
893.669556,318
893.786011,324
893.902588,323
894.019165,311
894.135681,325
894.252197,312
894.368835,312
894.485291,326
894.601868,320
894.718384,320
894.8349,312
894.951355,309
895.067932,311
895.184448,320
895.300964,312
895.417419,303
895.533936,304
895.650452,322
895.766907,323
895.883423,315
895.999878,322
896.116333,318
896.232849,317
896.349304,307
896.465759,325
896.582214,330
896.698669,323
896.815125,317
896.931641,310
897.048035,318
897.164551,320
897.280884,323
897.397339,317
897.513794,319
897.630249,328
897.746582,322
897.863098,322
897.979431,320
898.095886,311
898.212341,316
898.328674,333
898.445129,315
898.561462,320
898.677795,314
898.794312,321
898.910645,300
899.026978,309
899.143433,330
899.259766,320
899.37616,312
899.492493,312
899.608765,323
899.725159,315
899.841553,318
899.957947,313
900.07428,320
900.190552,299
900.306946,321
900.423157,311
900.53949,326
900.655884,315
900.772156,322
900.888489,316
901.004822,315
901.121033,323
901.237366,318
901.353699,307
901.46991,328
901.586304,317
901.702515,319
901.818787,319
901.93512,328
902.051331,315
902.167603,323
902.283875,320
902.400085,325
902.516418,317
902.632629,334
902.74884,317
902.865112,324
902.981384,318
903.097595,306
903.213867,321
903.330017,305
903.446289,314
903.5625,318
903.67865,300
903.794922,306
903.911072,306
904.027344,312
904.143494,329
904.259705,315
904.375916,309
904.492065,333
904.608215,306
904.724426,314
904.840576,320
904.956726,315
905.072876,328
905.189087,324
905.305176,318
905.421387,329
905.537537,320
905.653687,314
905.769775,315
905.885925,304
906.002014,313
906.118164,319
906.234314,305
906.350403,314
906.466492,310
906.582642,318
906.69873,309
906.814758,326
906.930908,318
907.046936,325
907.163086,309
907.279175,326
907.395264,309
907.511353,314
907.62738,316
907.743408,310
907.859497,312
907.975525,317
908.091553,317
908.207703,319
908.32373,304
908.439758,317
908.555786,313
908.671814,314
908.787842,311
908.90387,316
909.019775,318
909.135864,317
909.251892,323
909.367859,327
909.483826,318
909.599854,314
909.715881,307
909.831848,323
909.947815,315
910.063782,304
910.179749,308
910.295776,317
910.411743,312
910.527649,317
910.643616,312
910.759583,317
910.875488,315
910.991455,321
911.107361,324
911.223267,308
911.339294,324
911.4552,319
911.571106,313
911.687073,316
911.802979,307
911.918823,332
912.034729,315
912.150635,316
912.266602,332
912.382446,314
912.498352,322
912.614197,313
912.730103,309
912.846008,315
792.44574,312
792.56488,328
792.68396,375
792.80304,367
792.92218,316
793.041199,309
793.160339,324
793.279419,327
793.398499,311
793.517578,289
793.636658,302
793.755737,322
793.874817,335
793.993896,333
794.112976,321
794.232056,306
794.351074,324
794.470215,317
794.589233,310
794.708313,333
794.827393,318
794.946411,322
795.065552,331
795.18457,310
795.303589,324
795.422668,311
795.541687,310
795.660767,325
795.779846,331
795.898865,308
796.017883,324
796.136963,321
796.255981,327
796.375061,318
796.49408,300
796.613037,324
796.732117,308
796.851135,325
796.970154,324
797.089233,309
797.208191,326
797.327271,313
797.446228,331
797.565186,306
797.684265,317
797.803223,319
797.922241,308
798.04126,307
798.160278,321
798.279297,322
798.398315,311
798.517273,319
798.636292,324
798.75531,328
798.874268,330
798.993286,326
799.112244,311
799.231323,311
799.350281,311
799.469238,321
799.588257,317
799.707153,325
799.826111,321
799.945129,315
800.064087,315
800.183044,316
800.302063,320
800.421021,314
800.539978,324
800.658936,321
800.777893,326
800.896912,319
801.015747,319
801.134705,317
801.253723,315
801.37262,328
801.491638,330
801.610535,318
801.729492,320
801.84845,311
801.967407,324
802.086243,314
802.205261,317
802.324158,316
802.443115,318
802.562073,324
802.680969,310
802.799927,314
802.918762,315
803.037659,322
803.156677,318
803.275574,310
803.39447,333
803.513428,309
803.632263,325
803.751221,325
803.870117,316
803.989014,326
804.107971,317
804.226746,313
804.345642,322
804.4646,314
804.583496,318
804.702393,325
804.821228,314
804.940125,313
805.059021,326
805.177917,321
805.296814,331
805.415649,301
805.534546,331
805.653442,319
805.772278,316
805.891113,313
806.01001,309
806.128906,323
806.247742,321
806.366577,327
806.485413,315
806.604309,311
806.723145,319
806.84198,321
806.960876,306
807.079712,309
807.198486,311
807.317383,308
807.436218,304
807.554993,315
807.673889,314
807.792725,317
807.91156,310
808.030396,299
808.14917,327
808.268005,313
808.386841,322
808.505676,314
808.624451,311
808.743286,316
808.862122,309
808.980896,315
809.099731,328
809.218506,320
809.337341,326
809.456116,314
809.57489,326
809.693726,307
809.8125,319
809.931274,316
810.050049,305
810.168884,333
810.287659,324
810.406372,312
810.525269,328
810.643982,304
810.762756,318
810.881531,321
811.000305,317
811.11908,312
811.237854,323
811.356567,334
811.475403,312
811.594116,308
811.71283,328
811.831604,313
811.950378,316
812.069153,311
812.187927,312
812.30658,316
812.425415,332
812.544128,301
812.662781,332
812.781616,301
812.900269,330
813.019043,318
813.137756,313
813.256531,313
813.375244,310
813.493896,317
813.612671,308
813.731384,323
813.850037,316
813.96875,321
814.087524,319
814.206238,313
814.324951,331
814.443604,308
814.562256,322
814.68103,315
814.799683,315
814.918335,306
815.037109,331
815.155762,300
815.274475,313
815.393188,312
815.511841,312
815.630554,314
815.749146,314
815.867859,318
815.986572,309
816.105164,317
816.223877,312
816.342529,309
816.461182,331
816.579895,316
816.698486,314
816.817139,319
816.935791,307
817.054504,313
817.173096,312
817.291748,330
817.4104,307
817.529053,314
817.647644,304
817.766235,307
817.884949,314
818.00354,330
818.122192,309
818.240845,328
818.359436,306
818.478088,308
818.59668,326
818.715271,322
818.833923,325
818.952515,321
819.071106,304
819.189758,320
819.30835,310
819.426941,326
819.545532,317
819.664124,311
819.782715,324
819.901306,310
820.019897,328
820.138489,307
820.25708,327
820.375671,318
820.494202,315
820.612732,321
820.731384,316
820.849915,314
820.968506,309
821.087097,318
821.205627,306
821.324158,306
821.442749,309
821.561279,315
821.679871,315
821.798401,319
821.916931,321
822.035461,322
822.154053,320
822.272583,313
822.391174,314
822.509583,310
822.628174,332
822.746704,325
822.865234,320
822.983765,315
823.102295,322
823.220825,318
823.339294,310
823.457825,311
823.576355,320
823.694824,322
823.813354,319
823.931885,304
824.050354,320
824.168884,304
824.287354,320
824.405823,307
824.524353,316
824.642822,313
824.761353,298
824.879822,309
824.998291,308
825.116699,305
825.235291,311
825.353699,302
825.472168,317
825.590637,298
825.709106,309
825.827576,321
825.946045,320
826.064453,329
826.182983,321
826.301392,314
826.4198,307
826.53833,315
826.656738,312
826.775208,307
826.893677,330
827.012024,312
827.130493,323
827.248962,314
827.36731,310
827.485779,301
827.604248,319
827.722595,320
827.841064,317
827.959412,306
828.077942,321
828.196289,321
828.314636,314
828.433105,324
828.551514,311
828.669861,318
828.78833,307
828.906677,306
829.025085,308
829.143433,307
829.261841,309
829.38031,319
829.498657,317
829.617004,303
829.735413,320
829.85376,317
829.972107,325
830.090515,310
830.208862,310
830.327209,304
830.445557,311
830.563904,300
830.682312,311
830.800659,315
830.919006,313
831.037354,312
831.155701,316
831.274048,316
831.392395,311
831.51062,312
831.629028,316
831.747314,315
831.865662,303
831.984009,304
832.102356,310
832.220642,313
832.338928,318
832.457275,318
832.575623,304
832.693909,313
832.812134,326
832.930481,301
833.048828,328
833.167114,315
833.2854,314
833.403687,309
833.521973,306
833.640259,305
833.758545,315
833.876831,311
833.995056,310
834.113281,321
834.231628,320
834.349915,317
834.468201,320
834.586426,320
834.704651,313
834.822998,307
834.941162,315
835.059448,308
835.177673,311
835.295959,300
835.414246,316
835.53241,309
835.650635,321
835.768921,314
835.887146,305
836.005371,308
836.123596,311
836.241821,320
836.360046,319
836.478271,321
836.596497,322
836.714722,317
836.832886,324
836.95105,305
837.069336,314
837.1875,318
837.305725,312
837.423889,319
837.542053,323
837.660339,313
837.778503,311
837.896667,318
838.014832,324
838.132996,321
838.25116,320
838.369385,306
838.487488,305
838.605713,330
838.723877,315
838.84198,304
838.960205,320
839.078308,303
839.196472,313
839.314636,319
839.4328,316
839.550964,322
839.669067,311
839.787231,326
839.905396,312
840.023499,319
840.141602,316
840.259766,301
840.377869,330
840.495972,299
840.614136,319
840.732239,324
840.850342,329
840.968445,308
841.086548,320
841.204651,298
841.322754,318
841.440918,291
841.55896,320
841.677002,323
841.795166,311
841.913208,303
842.031311,319
842.149353,308
842.267456,315
842.385498,312
842.503601,324
842.621643,304
842.739746,310
842.857788,306
842.97583,326
843.093933,312
843.211975,317
843.330017,299
843.44812,317
843.566101,320
843.684204,323
843.802246,304
843.920227,315
844.038269,309
844.156311,292
844.274292,306
844.392395,299
844.510376,313
844.628357,328
844.74646,322
844.864441,323
844.982422,322
845.100403,318
845.218384,315
845.336426,302
845.454468,319
845.572449,306
845.69043,301
845.808411,311
845.926453,318
846.044373,315
846.162354,314
846.280396,310
846.398315,309
846.516296,305
846.634216,314
846.752197,309
846.870178,318
846.988098,314
847.106079,318
847.22406,313
847.34198,296
847.4599,326
847.577881,301
847.695801,309
847.813782,303
847.931641,313
848.049561,318
848.167603,315
848.285461,305
848.403381,315
848.521362,317
848.639221,324
848.75708,319
848.875,311
848.99292,324
849.110901,314
849.22876,308
849.34668,310
849.464539,315
849.582458,318
849.700317,308
849.818176,323
849.936096,302
850.053955,321
850.171875,303
850.289673,317
850.407593,304
850.525452,327
850.643311,313
850.761169,318
850.878967,317
850.996887,321
851.114746,311
851.232544,312
851.350403,308
851.468262,311
851.58606,313
851.703979,320
851.821777,325
851.939636,309
852.057434,312
852.175232,323
852.293091,314
852.410889,313
852.528687,312
852.646545,311
852.764343,310
852.88208,315
852.999939,328
853.117676,320
853.235535,304
853.353271,311
853.471069,317
853.588928,326
853.706604,311
853.824402,306
853.9422,317
854.059998,308
854.177734,304
854.295532,327
854.413269,313
854.531006,318
854.648804,307
854.766541,311
854.884277,318
855.002014,296
855.119751,312
855.237549,311
855.355225,309
855.473022,299
855.590698,319
855.708435,318
855.826172,312
855.943848,313
856.061646,308
856.179321,310
856.296997,313
856.414795,310
856.53241,304
856.650085,318
856.767822,323
856.885559,325
857.003174,324
857.120911,311
857.238586,305
857.356201,319
857.473938,320
857.591614,315
857.709351,311
857.826965,316
857.944641,316
858.062317,322
858.179993,308
858.297668,315
858.415283,304
858.532959,318
858.650574,313
858.768188,317
858.885803,292
859.003479,320
859.121094,318
859.23877,329
859.356384,314
859.473999,308
859.591675,311
859.709229,323
859.826843,313
859.944458,316
860.062012,308
860.179626,322
860.297302,309
860.414856,325
860.532471,312
860.650024,310
860.767639,319
860.885193,307
861.002808,317
861.120361,305
861.237976,308
861.35553,321
861.473022,316
861.590698,324
861.708191,300
861.825745,313
861.943298,310
862.060852,313
862.178406,322
862.295959,302
862.413513,322
862.531006,314
862.64856,302
862.766113,310
862.883667,322
863.00116,317
863.118713,306
863.236206,318
863.353699,309
863.471252,323
863.588745,308
863.706177,313
863.82373,311
863.941162,319
864.058716,311
864.176208,324
864.29364,303
864.411194,327
864.528687,309
864.646118,317
864.763611,308
864.881042,317
864.998535,317
865.116028,315
865.233459,312
865.350891,318
865.468384,305
865.585754,311
865.703308,311
865.820679,318
865.938171,310
866.055542,307
866.173035,313
866.290466,312
866.407837,314
866.52533,317
866.6427,306
866.760071,330
866.877563,324
866.994934,324
867.112305,333
867.229736,316
867.347107,311
867.464539,316
867.58197,293
867.699341,309
867.81665,302
867.934082,316
868.051453,310
868.168823,322
868.286194,299
868.403564,312
868.520935,310
868.638306,307
868.755676,321
868.872986,309
868.990295,321
869.107727,312
869.225037,322
869.342346,325
869.459717,312
869.577026,317
869.694336,323
869.811707,311
869.929016,314
870.046326,310
870.163635,310
870.280945,307
870.398254,311
870.515564,328
870.632812,316
870.750183,322
870.867432,314
870.984741,331
871.102051,308
871.219299,310
871.336609,304
871.453918,324
871.571106,332
871.688416,313
871.805664,322
871.922852,313
872.040222,304
872.157471,317
872.274719,307
872.391968,300
872.509155,312
872.626465,321
872.743652,316
872.860962,306
872.978149,290
873.095337,302
873.212646,301
873.329834,320
873.44696,320
873.564209,319
873.681396,312
873.798645,327
873.915894,307
874.03302,308
874.150208,297
874.267456,326
874.384583,318
874.501831,315
874.618958,308
874.736145,315
874.853333,320
874.970459,324
875.087646,312
875.204834,304
875.32196,327
875.439148,319
875.556274,312
875.673401,323
875.790527,313
875.907715,309
876.024841,310
876.141968,317
876.259094,306
876.376282,317
876.493347,311
876.610474,322
876.7276,314
876.844727,329
876.961853,325
877.078918,321
877.195984,320
877.313171,313
877.430237,326
877.547302,324
877.664368,304
877.781433,315
877.898499,306
878.015625,327
878.13269,317
878.249695,309
878.366821,316
878.483887,322
878.600952,309
878.717957,320
878.834961,307
878.952087,319
879.069092,307
879.186157,308
879.303162,313
879.420227,306
879.537231,308
879.654236,334
879.77124,310
879.888306,316
880.005249,317
880.122314,303
880.239319,307
880.356323,328
880.473328,303
880.590271,311
880.707275,308
880.824341,310
880.941284,315
881.058228,323
881.175232,300
881.292236,309
881.40918,308
881.526123,302
881.643066,305
881.760071,319
881.877014,316
881.993958,323
882.11084,310
882.227783,313
882.344727,302
882.46167,307
882.578613,300
882.695618,309
882.812439,314
882.929382,313
883.046326,327
883.163208,311
883.280151,312
883.397034,322
883.513916,307
883.630798,296
883.747742,312
883.864563,310
883.981506,313
884.098389,304
884.21521,307
884.332153,319
884.448975,310
884.565796,317
884.682678,317
884.7995,319
884.916443,304
885.033264,326
885.150085,308
885.266968,325
885.383789,309
885.500671,312
885.617493,316
885.734314,316
885.851196,318
885.967896,326
886.084717,306
886.201599,323
886.318359,309
886.435181,332
886.552002,302
886.668762,318
886.785645,321
886.902344,324
887.019165,307
887.135925,317
887.252747,307
887.369446,314
887.486267,314
887.603027,305
887.719788,309
887.836548,315
887.953247,316
888.070068,318
888.186829,308
888.303528,326
888.420288,309
888.536987,318
888.653687,304
888.770447,322
888.887146,314
889.003967,305
889.120667,310
889.237305,316
889.354065,304
889.470703,331
889.587463,309
889.704163,330
889.820862,296
889.937561,315
890.054199,310
890.170837,320
890.287598,321
890.404236,316
890.520874,314
890.637634,317
890.754211,308
890.87085,326
890.987549,318
891.104187,328
891.220886,306
891.337463,312
891.454102,315
891.57074,310
891.687378,312
891.804077,332
891.920654,321
892.037231,314
892.15387,297
892.270447,325
892.387085,323
892.503723,315
892.6203,311
892.736877,327
892.853516,320
892.970032,308
893.08667,321
893.203186,302
893.319763,313
893.43634,316
893.552917,327
893.669556,313
893.786011,315
893.902588,314
894.019165,320
894.135681,310
894.252197,308
894.368835,325
894.485291,320
894.601868,320
894.718384,305
894.8349,311
894.951355,319
895.067932,320
895.184448,310
895.300964,322
895.417419,305
895.533936,317
895.650452,313
895.766907,311
895.883423,313
895.999878,313
896.116333,303
896.232849,317
896.349304,306
896.465759,316
896.582214,309
896.698669,322
896.815125,307
896.931641,316
897.048035,315
897.164551,322
897.280884,310
897.397339,314
897.513794,314
897.630249,322
897.746582,307
897.863098,320
897.979431,306
898.095886,311
898.212341,308
898.328674,308
898.445129,313
898.561462,318
898.677795,306
898.794312,324
898.910645,298
899.026978,320
899.143433,304
899.259766,319
899.37616,314
899.492493,328
899.608765,322
899.725159,307
899.841553,307
899.957947,317
900.07428,299
900.190552,317
900.306946,301
900.423157,307
900.53949,309
900.655884,313
900.772156,313
900.888489,307
901.004822,304
901.121033,321
901.237366,315
901.353699,321
901.46991,299
901.586304,317
901.702515,315
901.818787,310
901.93512,310
902.051331,317
902.167603,310
902.283875,321
902.400085,317
902.516418,317
902.632629,311
902.74884,316
902.865112,322
902.981384,316
903.097595,313
903.213867,308
903.330017,311
903.446289,314
903.5625,309
903.67865,323
903.794922,314
903.911072,339
904.027344,315
904.143494,307
904.259705,309
904.375916,319
904.492065,316
904.608215,326
904.724426,310
904.840576,315
904.956726,303
905.072876,305
905.189087,298
905.305176,319
905.421387,314
905.537537,308
905.653687,301
905.769775,318
905.885925,317
906.002014,325
906.118164,314
906.234314,309
906.350403,323
906.466492,319
906.582642,316
906.69873,315
906.814758,297
906.930908,321
907.046936,310
907.163086,319
907.279175,334
907.395264,311
907.511353,321
907.62738,324
907.743408,308
907.859497,310
907.975525,318
908.091553,315
908.207703,311
908.32373,330
908.439758,308
908.555786,313
908.671814,326
908.787842,328
908.90387,308
909.019775,307
909.135864,317
909.251892,322
909.367859,297
909.483826,326
909.599854,313
909.715881,314
909.831848,304
909.947815,308
910.063782,308
910.179749,321
910.295776,314
910.411743,316
910.527649,305
910.643616,317
910.759583,316
910.875488,320
910.991455,317
911.107361,315
911.223267,311
911.339294,321
911.4552,299
911.571106,325
911.687073,308
911.802979,321
911.918823,308
912.034729,307
912.150635,308
912.266602,319
912.382446,323
912.498352,312
912.614197,323
912.730103,314
912.846008,300
