792.44574,319
792.56488,336
792.68396,408
792.80304,376
792.92218,331
793.041199,306
793.160339,317
793.279419,330
793.398499,318
793.517578,315
793.636658,317
793.755737,326
793.874817,345
793.993896,340
794.112976,326
794.232056,317
794.351074,336
794.470215,329
794.589233,326
794.708313,324
794.827393,331
794.946411,333
795.065552,339
795.18457,344
795.303589,344
795.422668,318
795.541687,321
795.660767,321
795.779846,346
795.898865,321
796.017883,320
796.136963,313
796.255981,330
796.375061,319
796.49408,333
796.613037,328
796.732117,312
796.851135,338
796.970154,309
797.089233,328
797.208191,326
797.327271,321
797.446228,322
797.565186,316
797.684265,337
797.803223,319
797.922241,325
798.04126,322
798.160278,323
798.279297,334
798.398315,318
798.517273,318
798.636292,318
798.75531,327
798.874268,321
798.993286,314
799.112244,331
799.231323,320
799.350281,310
799.469238,330
799.588257,327
799.707153,316
799.826111,324
799.945129,314
800.064087,318
800.183044,332
800.302063,321
800.421021,333
800.539978,309
800.658936,320
800.777893,321
800.896912,322
801.015747,319
801.134705,319
801.253723,339
801.37262,327
801.491638,326
801.610535,315
801.729492,305
801.84845,328
801.967407,315
802.086243,329
802.205261,320
802.324158,326
802.443115,304
802.562073,319
802.680969,336
802.799927,324
802.918762,323
803.037659,330
803.156677,328
803.275574,328
803.39447,324
803.513428,331
803.632263,320
803.751221,311
803.870117,329
803.989014,319
804.107971,333
804.226746,324
804.345642,333
804.4646,321
804.583496,331
804.702393,322
804.821228,312
804.940125,311
805.059021,315
805.177917,323
805.296814,313
805.415649,328
805.534546,316
805.653442,324
805.772278,311
805.891113,315
806.01001,326
806.128906,315
806.247742,312
806.366577,330
806.485413,345
806.604309,320
806.723145,318
806.84198,323
806.960876,335
807.079712,311
807.198486,323
807.317383,318
807.436218,323
807.554993,331
807.673889,326
807.792725,325
807.91156,332
808.030396,311
808.14917,318
808.268005,324
808.386841,316
808.505676,341
808.624451,332
808.743286,319
808.862122,317
808.980896,313
809.099731,316
809.218506,320
809.337341,308
809.456116,319
809.57489,332
809.693726,317
809.8125,324
809.931274,320
810.050049,325
810.168884,334
810.287659,329
810.406372,321
810.525269,325
810.643982,321
810.762756,334
810.881531,310
811.000305,319
811.11908,319
811.237854,319
811.356567,327
811.475403,328
811.594116,314
811.71283,333
811.831604,322
811.950378,333
812.069153,328
812.187927,322
812.30658,321
812.425415,316
812.544128,320
812.662781,326
812.781616,319
812.900269,319
813.019043,306
813.137756,334
813.256531,316
813.375244,325
813.493896,323
813.612671,327
813.731384,316
813.850037,326
813.96875,330
814.087524,318
814.206238,314
814.324951,316
814.443604,316
814.562256,320
814.68103,337
814.799683,325
814.918335,319
815.037109,314
815.155762,335
815.274475,324
815.393188,315
815.511841,313
815.630554,318
815.749146,330
815.867859,315
815.986572,326
816.105164,327
816.223877,315
816.342529,311
816.461182,327
816.579895,303
816.698486,319
816.817139,301
816.935791,314
817.054504,312
817.173096,314
817.291748,319
817.4104,337
817.529053,314
817.647644,330
817.766235,320
817.884949,317
818.00354,315
818.122192,327
818.240845,311
818.359436,301
818.478088,312
818.59668,327
818.715271,327
818.833923,316
818.952515,310
819.071106,319
819.189758,319
819.30835,339
819.426941,314
819.545532,314
819.664124,313
819.782715,321
819.901306,319
820.019897,308
820.138489,316
820.25708,316
820.375671,330
820.494202,301
820.612732,318
820.731384,318
820.849915,318
820.968506,323
821.087097,321
821.205627,318
821.324158,322
821.442749,332
821.561279,326
821.679871,329
821.798401,314
821.916931,316
822.035461,311
822.154053,315
822.272583,328
822.391174,323
822.509583,305
822.628174,322
822.746704,319
822.865234,319
822.983765,323
823.102295,317
823.220825,308
823.339294,318
823.457825,329
823.576355,311
823.694824,318
823.813354,324
823.931885,339
824.050354,328
824.168884,327
824.287354,305
824.405823,324
824.524353,314
824.642822,312
824.761353,321
824.879822,317
824.998291,330
825.116699,310
825.235291,323
825.353699,319
825.472168,321
825.590637,329
825.709106,319
825.827576,311
825.946045,316
826.064453,314
826.182983,306
826.301392,319
826.4198,319
826.53833,328
826.656738,323
826.775208,311
826.893677,327
827.012024,313
827.130493,319
827.248962,306
827.36731,314
827.485779,339
827.604248,327
827.722595,318
827.841064,304
827.959412,318
828.077942,312
828.196289,321
828.314636,341
828.433105,324
828.551514,313
828.669861,308
828.78833,316
828.906677,322
829.025085,315
829.143433,318
829.261841,317
829.38031,314
829.498657,318
829.617004,319
829.735413,310
829.85376,318
829.972107,320
830.090515,309
830.208862,316
830.327209,311
830.445557,322
830.563904,317
830.682312,321
830.800659,312
830.919006,323
831.037354,318
831.155701,331
831.274048,300
831.392395,306
831.51062,321
831.629028,318
831.747314,323
831.865662,313
831.984009,309
832.102356,321
832.220642,319
832.338928,336
832.457275,322
832.575623,325
832.693909,315
832.812134,323
832.930481,321
833.048828,309
833.167114,322
833.2854,327
833.403687,315
833.521973,317
833.640259,303
833.758545,322
833.876831,310
833.995056,317
834.113281,313
834.231628,331
834.349915,318
834.468201,328
834.586426,308
834.704651,319
834.822998,317
834.941162,321
835.059448,308
835.177673,316
835.295959,309
835.414246,323
835.53241,304
835.650635,306
835.768921,302
835.887146,304
836.005371,323
836.123596,321
836.241821,324
836.360046,323
836.478271,323
836.596497,310
836.714722,312
836.832886,328
836.95105,324
837.069336,337
837.1875,308
837.305725,318
837.423889,323
837.542053,321
837.660339,318
837.778503,322
837.896667,311
838.014832,310
838.132996,312
838.25116,320
838.369385,314
838.487488,328
838.605713,319
838.723877,323
838.84198,327
838.960205,310
839.078308,314
839.196472,324
839.314636,309
839.4328,331
839.550964,337
839.669067,330
839.787231,311
839.905396,329
840.023499,324
840.141602,313
840.259766,322
840.377869,321
840.495972,318
840.614136,313
840.732239,323
840.850342,327
840.968445,308
841.086548,332
841.204651,314
841.322754,315
841.440918,317
841.55896,321
841.677002,315
841.795166,309
841.913208,309
842.031311,309
842.149353,310
842.267456,331
842.385498,306
842.503601,322
842.621643,304
842.739746,310
842.857788,311
842.97583,317
843.093933,300
843.211975,318
843.330017,307
843.44812,329
843.566101,324
843.684204,322
843.802246,323
843.920227,323
844.038269,308
844.156311,316
844.274292,309
844.392395,323
844.510376,326
844.628357,316
844.74646,310
844.864441,314
844.982422,315
845.100403,313
845.218384,322
845.336426,327
845.454468,321
845.572449,320
845.69043,317
845.808411,318
845.926453,320
846.044373,329
846.162354,315
846.280396,321
846.398315,298
846.516296,317
846.634216,318
846.752197,315
846.870178,317
846.988098,313
847.106079,313
847.22406,308
847.34198,320
847.4599,319
847.577881,311
847.695801,327
847.813782,316
847.931641,328
848.049561,315
848.167603,322
848.285461,313
848.403381,327
848.521362,305
848.639221,340
848.75708,310
848.875,313
848.99292,316
849.110901,321
849.22876,318
849.34668,319
849.464539,321
849.582458,307
849.700317,305
849.818176,311
849.936096,315
850.053955,318
850.171875,321
850.289673,300
850.407593,309
850.525452,321
850.643311,302
850.761169,309
850.878967,307
850.996887,323
851.114746,312
851.232544,316
851.350403,312
851.468262,313
851.58606,325
851.703979,321
851.821777,319
851.939636,322
852.057434,321
852.175232,316
852.293091,313
852.410889,309
852.528687,322
852.646545,306
852.764343,309
852.88208,319
852.999939,319
853.117676,312
853.235535,301
853.353271,315
853.471069,308
853.588928,325
853.706604,307
853.824402,320
853.9422,310
854.059998,314
854.177734,315
854.295532,327
854.413269,312
854.531006,310
854.648804,324
854.766541,323
854.884277,316
855.002014,324
855.119751,300
855.237549,313
855.355225,315
855.473022,325
855.590698,315
855.708435,306
855.826172,310
855.943848,316
856.061646,326
856.179321,314
856.296997,304
856.414795,315
856.53241,319
856.650085,325
856.767822,309
856.885559,322
857.003174,314
857.120911,321
857.238586,324
857.356201,313
857.473938,323
857.591614,318
857.709351,316
857.826965,322
857.944641,318
858.062317,317
858.179993,314
858.297668,323
858.415283,309
858.532959,322
858.650574,301
858.768188,320
858.885803,317
859.003479,309
859.121094,319
859.23877,323
859.356384,319
859.473999,318
859.591675,311
859.709229,310
859.826843,313
859.944458,321
860.062012,318
860.179626,317
860.297302,309
860.414856,318
860.532471,308
860.650024,326
860.767639,312
860.885193,332
861.002808,325
861.120361,312
861.237976,317
861.35553,317
861.473022,306
861.590698,328
861.708191,312
861.825745,319
861.943298,305
862.060852,321
862.178406,311
862.295959,312
862.413513,324
862.531006,330
862.64856,307
862.766113,321
862.883667,306
863.00116,330
863.118713,318
863.236206,305
863.353699,325
863.471252,330
863.588745,322
863.706177,332
863.82373,319
863.941162,319
864.058716,317
864.176208,337
864.29364,317
864.411194,314
864.528687,312
864.646118,315
864.763611,308
864.881042,331
864.998535,314
865.116028,325
865.233459,308
865.350891,318
865.468384,314
865.585754,318
865.703308,327
865.820679,308
865.938171,314
866.055542,317
866.173035,305
866.290466,320
866.407837,308
866.52533,324
866.6427,316
866.760071,329
866.877563,316
866.994934,322
867.112305,323
867.229736,319
867.347107,314
867.464539,329
867.58197,304
867.699341,303
867.81665,316
867.934082,316
868.051453,322
868.168823,308
868.286194,322
868.403564,305
868.520935,314
868.638306,313
868.755676,325
868.872986,321
868.990295,317
869.107727,310
869.225037,315
869.342346,311
869.459717,313
869.577026,322
869.694336,322
869.811707,310
869.929016,324
870.046326,318
870.163635,308
870.280945,321
870.398254,318
870.515564,323
870.632812,301
870.750183,311
870.867432,308
870.984741,326
871.102051,323
871.219299,328
871.336609,309
871.453918,327
871.571106,316
871.688416,330
871.805664,315
871.922852,319
872.040222,314
872.157471,319
872.274719,327
872.391968,322
872.509155,311
872.626465,306
872.743652,318
872.860962,316
872.978149,330
873.095337,322
873.212646,309
873.329834,320
873.44696,313
873.564209,327
873.681396,306
873.798645,311
873.915894,330
874.03302,303
874.150208,319
874.267456,317
874.384583,316
874.501831,318
874.618958,312
874.736145,308
874.853333,307
874.970459,318
875.087646,305
875.204834,315
875.32196,303
875.439148,311
875.556274,312
875.673401,329
875.790527,323
875.907715,320
876.024841,322
876.141968,318
876.259094,319
876.376282,321
876.493347,313
876.610474,332
876.7276,297
876.844727,315
876.961853,305
877.078918,316
877.195984,322
877.313171,321
877.430237,309
877.547302,323
877.664368,306
877.781433,322
877.898499,320
878.015625,320
878.13269,311
878.249695,316
878.366821,317
878.483887,318
878.600952,306
878.717957,327
878.834961,312
878.952087,325
879.069092,317
879.186157,319
879.303162,317
879.420227,312
879.537231,312
879.654236,312
879.77124,327
879.888306,315
880.005249,323
880.122314,329
880.239319,318
880.356323,307
880.473328,312
880.590271,330
880.707275,326
880.824341,318
880.941284,323
881.058228,316
881.175232,321
881.292236,315
881.40918,320
881.526123,316
881.643066,313
881.760071,326
881.877014,310
881.993958,308
882.11084,302
882.227783,326
882.344727,299
882.46167,330
882.578613,314
882.695618,313
882.812439,309
882.929382,332
883.046326,313
883.163208,317
883.280151,316
883.397034,307
883.513916,314
883.630798,316
883.747742,320
883.864563,322
883.981506,323
884.098389,314
884.21521,312
884.332153,310
884.448975,324
884.565796,313
884.682678,323
884.7995,308
884.916443,301
885.033264,318
885.150085,323
885.266968,325
885.383789,309
885.500671,324
885.617493,325
885.734314,324
885.851196,305
885.967896,313
886.084717,310
886.201599,327
886.318359,301
886.435181,329
886.552002,325
886.668762,313
886.785645,313
886.902344,311
887.019165,319
887.135925,330
887.252747,317
887.369446,319
887.486267,322
887.603027,327
887.719788,321
887.836548,328
887.953247,324
888.070068,311
888.186829,317
888.303528,325
888.420288,321
888.536987,314
888.653687,319
888.770447,321
888.887146,312
889.003967,317
889.120667,318
889.237305,323
889.354065,309
889.470703,322
889.587463,320
889.704163,314
889.820862,311
889.937561,331
890.054199,325
890.170837,325
890.287598,314
890.404236,313
890.520874,321
890.637634,315
890.754211,315
890.87085,317
890.987549,296
891.104187,326
891.220886,321
891.337463,322
891.454102,315
891.57074,319
891.687378,311
891.804077,330
891.920654,322
892.037231,325
892.15387,328
892.270447,314
892.387085,319
892.503723,319
892.6203,319
892.736877,328
892.853516,310
892.970032,322
893.08667,309
893.203186,327
893.319763,319
893.43634,319
893.552917,312
893.669556,318
893.786011,329
893.902588,317
894.019165,326
894.135681,321
894.252197,317
894.368835,319
894.485291,324
894.601868,323
894.718384,320
894.8349,320
894.951355,307
895.067932,321
895.184448,314
895.300964,314
895.417419,321
895.533936,326
895.650452,308
895.766907,332
895.883423,298
895.999878,318
896.116333,308
896.232849,323
896.349304,329
896.465759,321
896.582214,319
896.698669,321
896.815125,323
896.931641,325
897.048035,321
897.164551,310
897.280884,329
897.397339,315
897.513794,321
897.630249,321
897.746582,320
897.863098,316
897.979431,306
898.095886,322
898.212341,303
898.328674,323
898.445129,305
898.561462,322
898.677795,310
898.794312,319
898.910645,304
899.026978,329
899.143433,316
899.259766,324
899.37616,312
899.492493,326
899.608765,312
899.725159,328
899.841553,309
899.957947,320
900.07428,308
900.190552,319
900.306946,317
900.423157,326
900.53949,320
900.655884,307
900.772156,318
900.888489,317
901.004822,323
901.121033,330
901.237366,312
901.353699,326
901.46991,319
901.586304,310
901.702515,328
901.818787,324
901.93512,309
902.051331,326
902.167603,317
902.283875,335
902.400085,302
902.516418,321
902.632629,311
902.74884,320
902.865112,322
902.981384,318
903.097595,309
903.213867,320
903.330017,315
903.446289,317
903.5625,320
903.67865,321
903.794922,306
903.911072,320
904.027344,314
904.143494,320
904.259705,319
904.375916,324
904.492065,327
904.608215,310
904.724426,311
904.840576,314
904.956726,315
905.072876,327
905.189087,315
905.305176,311
905.421387,323
905.537537,318
905.653687,309
905.769775,319
905.885925,304
906.002014,317
906.118164,326
906.234314,327
906.350403,319
906.466492,331
906.582642,313
906.69873,317
906.814758,324
906.930908,331
907.046936,309
907.163086,332
907.279175,316
907.395264,314
907.511353,308
907.62738,327
907.743408,310
907.859497,319
907.975525,315
908.091553,328
908.207703,314
908.32373,317
908.439758,318
908.555786,317
908.671814,312
908.787842,307
908.90387,310
909.019775,320
909.135864,312
909.251892,332
909.367859,310
909.483826,326
909.599854,326
909.715881,318
909.831848,312
909.947815,329
910.063782,324
910.179749,309
910.295776,316
910.411743,315
910.527649,314
910.643616,311
910.759583,316
910.875488,320
910.991455,318
911.107361,330
911.223267,327
911.339294,313
911.4552,319
911.571106,323
911.687073,313
911.802979,337
911.918823,316
912.034729,322
912.150635,324
912.266602,328
912.382446,310
912.498352,319
912.614197,312
912.730103,327
912.846008,324
792.44574,306
792.56488,335
792.68396,398
792.80304,361
792.92218,343
793.041199,311
793.160339,320
793.279419,329
793.398499,319
793.517578,306
793.636658,319
793.755737,307
793.874817,344
793.993896,325
794.112976,330
794.232056,314
794.351074,325
794.470215,319
794.589233,324
794.708313,325
794.827393,323
794.946411,320
795.065552,322
795.18457,328
795.303589,325
795.422668,318
795.541687,313
795.660767,328
795.779846,314
795.898865,323
796.017883,336
796.136963,313
796.255981,322
796.375061,308
796.49408,331
796.613037,299
796.732117,306
796.851135,327
796.970154,324
797.089233,340
797.208191,340
797.327271,312
797.446228,341
797.565186,314
797.684265,336
797.803223,325
797.922241,338
798.04126,314
798.160278,329
798.279297,333
798.398315,313
798.517273,336
798.636292,329
798.75531,306
798.874268,329
798.993286,316
799.112244,323
799.231323,313
799.350281,317
799.469238,325
799.588257,317
799.707153,327
799.826111,319
799.945129,313
800.064087,328
800.183044,319
800.302063,321
800.421021,330
800.539978,319
800.658936,310
800.777893,326
800.896912,317
801.015747,326
801.134705,301
801.253723,334
801.37262,322
801.491638,319
801.610535,319
801.729492,309
801.84845,323
801.967407,325
802.086243,315
802.205261,316
802.324158,322
802.443115,324
802.562073,319
802.680969,311
802.799927,335
802.918762,328
803.037659,311
803.156677,319
803.275574,319
803.39447,313
803.513428,322
803.632263,322
803.751221,324
803.870117,316
803.989014,319
804.107971,302
804.226746,334
804.345642,329
804.4646,309
804.583496,317
804.702393,314
804.821228,337
804.940125,313
805.059021,329
805.177917,323
805.296814,323
805.415649,322
805.534546,317
805.653442,316
805.772278,328
805.891113,307
806.01001,319
806.128906,320
806.247742,325
806.366577,316
806.485413,317
806.604309,314
806.723145,319
806.84198,321
806.960876,316
807.079712,322
807.198486,335
807.317383,312
807.436218,324
807.554993,316
807.673889,327
807.792725,317
807.91156,323
808.030396,314
808.14917,335
808.268005,328
808.386841,321
808.505676,322
808.624451,324
808.743286,315
808.862122,325
808.980896,319
809.099731,309
809.218506,327
809.337341,328
809.456116,324
809.57489,337
809.693726,316
809.8125,325
809.931274,333
810.050049,317
810.168884,331
810.287659,314
810.406372,320
810.525269,312
810.643982,307
810.762756,339
810.881531,315
811.000305,326
811.11908,328
811.237854,317
811.356567,321
811.475403,329
811.594116,320
811.71283,327
811.831604,309
811.950378,327
812.069153,323
812.187927,318
812.30658,311
812.425415,336
812.544128,313
812.662781,311
812.781616,321
812.900269,329
813.019043,315
813.137756,323
813.256531,336
813.375244,324
813.493896,329
813.612671,332
813.731384,314
813.850037,325
813.96875,305
814.087524,321
814.206238,323
814.324951,311
814.443604,319
814.562256,317
814.68103,315
814.799683,327
814.918335,326
815.037109,335
815.155762,314
815.274475,324
815.393188,306
815.511841,319
815.630554,323
815.749146,324
815.867859,308
815.986572,322
816.105164,322
816.223877,313
816.342529,314
816.461182,330
816.579895,317
816.698486,330
816.817139,303
816.935791,323
817.054504,315
817.173096,330
817.291748,330
817.4104,320
817.529053,319
817.647644,325
817.766235,311
817.884949,320
818.00354,322
818.122192,324
818.240845,328
818.359436,325
818.478088,311
818.59668,323
818.715271,315
818.833923,321
818.952515,333
819.071106,317
819.189758,329
819.30835,315
819.426941,316
819.545532,315
819.664124,319
819.782715,316
819.901306,329
820.019897,322
820.138489,308
820.25708,317
820.375671,316
820.494202,316
820.612732,304
820.731384,311
820.849915,318
820.968506,320
821.087097,312
821.205627,303
821.324158,321
821.442749,324
821.561279,309
821.679871,313
821.798401,322
821.916931,331
822.035461,315
822.154053,314
822.272583,309
822.391174,318
822.509583,309
822.628174,333
822.746704,307
822.865234,330
822.983765,312
823.102295,316
823.220825,323
823.339294,317
823.457825,315
823.576355,315
823.694824,307
823.813354,314
823.931885,325
824.050354,313
824.168884,318
824.287354,321
824.405823,315
824.524353,322
824.642822,306
824.761353,314
824.879822,312
824.998291,320
825.116699,315
825.235291,316
825.353699,328
825.472168,325
825.590637,317
825.709106,321
825.827576,310
825.946045,322
826.064453,318
826.182983,307
826.301392,313
826.4198,326
826.53833,314
826.656738,325
826.775208,303
826.893677,312
827.012024,309
827.130493,326
827.248962,299
827.36731,327
827.485779,316
827.604248,316
827.722595,316
827.841064,322
827.959412,315
828.077942,316
828.196289,321
828.314636,306
828.433105,314
828.551514,319
828.669861,304
828.78833,311
828.906677,302
829.025085,315
829.143433,314
829.261841,326
829.38031,310
829.498657,306
829.617004,320
829.735413,314
829.85376,316
829.972107,318
830.090515,315
830.208862,305
830.327209,308
830.445557,304
830.563904,307
830.682312,328
830.800659,310
830.919006,325
831.037354,310
831.155701,328
831.274048,318
831.392395,312
831.51062,324
831.629028,318
831.747314,310
831.865662,317
831.984009,318
832.102356,304
832.220642,324
832.338928,311
832.457275,313
832.575623,317
832.693909,310
832.812134,322
832.930481,309
833.048828,319
833.167114,307
833.2854,324
833.403687,320
833.521973,316
833.640259,309
833.758545,323
833.876831,319
833.995056,319
834.113281,314
834.231628,324
834.349915,322
834.468201,330
834.586426,298
834.704651,314
834.822998,317
834.941162,320
835.059448,322
835.177673,310
835.295959,313
835.414246,325
835.53241,311
835.650635,316
835.768921,305
835.887146,319
836.005371,311
836.123596,315
836.241821,310
836.360046,330
836.478271,305
836.596497,319
836.714722,308
836.832886,324
836.95105,313
837.069336,323
837.1875,326
837.305725,321
837.423889,313
837.542053,319
837.660339,306
837.778503,314
837.896667,305
838.014832,319
838.132996,308
838.25116,315
838.369385,310
838.487488,313
838.605713,309
838.723877,310
838.84198,329
838.960205,315
839.078308,314
839.196472,311
839.314636,316
839.4328,314
839.550964,308
839.669067,314
839.787231,317
839.905396,328
840.023499,312
840.141602,316
840.259766,309
840.377869,312
840.495972,318
840.614136,317
840.732239,301
840.850342,332
840.968445,315
841.086548,326
841.204651,325
841.322754,317
841.440918,312
841.55896,318
841.677002,314
841.795166,319
841.913208,309
842.031311,313
842.149353,317
842.267456,314
842.385498,309
842.503601,311
842.621643,308
842.739746,299
842.857788,301
842.97583,326
843.093933,307
843.211975,317
843.330017,315
843.44812,316
843.566101,310
843.684204,301
843.802246,313
843.920227,316
844.038269,315
844.156311,314
844.274292,313
844.392395,313
844.510376,305
844.628357,316
844.74646,316
844.864441,330
844.982422,312
845.100403,312
845.218384,309
845.336426,316
845.454468,308
845.572449,317
845.69043,318
845.808411,326
845.926453,331
846.044373,312
846.162354,318
846.280396,324
846.398315,313
846.516296,323
846.634216,321
846.752197,311
846.870178,311
846.988098,315
847.106079,314
847.22406,308
847.34198,310
847.4599,310
847.577881,320
847.695801,314
847.813782,309
847.931641,321
848.049561,304
848.167603,308
848.285461,318
848.403381,324
848.521362,308
848.639221,324
848.75708,306
848.875,309
848.99292,311
849.110901,310
849.22876,314
849.34668,327
849.464539,294
849.582458,326
849.700317,321
849.818176,318
849.936096,317
850.053955,316
850.171875,318
850.289673,324
850.407593,312
850.525452,309
850.643311,308
850.761169,334
850.878967,300
850.996887,323
851.114746,299
851.232544,313
851.350403,304
851.468262,330
851.58606,307
851.703979,324
851.821777,305
851.939636,331
852.057434,318
852.175232,311
852.293091,317
852.410889,319
852.528687,313
852.646545,309
852.764343,321
852.88208,314
852.999939,313
853.117676,325
853.235535,325
853.353271,328
853.471069,311
853.588928,310
853.706604,306
853.824402,321
853.9422,316
854.059998,314
854.177734,318
854.295532,312
854.413269,321
854.531006,333
854.648804,312
854.766541,308
854.884277,320
855.002014,320
855.119751,319
855.237549,319
855.355225,311
855.473022,323
855.590698,320
855.708435,307
855.826172,320
855.943848,318
856.061646,317
856.179321,307
856.296997,307
856.414795,323
856.53241,309
856.650085,328
856.767822,296
856.885559,315
857.003174,317
857.120911,327
857.238586,307
857.356201,316
857.473938,318
857.591614,322
857.709351,324
857.826965,319
857.944641,308
858.062317,311
858.179993,313
858.297668,308
858.415283,308
858.532959,324
858.650574,310
858.768188,323
858.885803,308
859.003479,322
859.121094,302
859.23877,322
859.356384,321
859.473999,309
859.591675,315
859.709229,314
859.826843,310
859.944458,333
860.062012,307
860.179626,322
860.297302,303
860.414856,327
860.532471,311
860.650024,315
860.767639,318
860.885193,319
861.002808,311
861.120361,313
861.237976,300
861.35553,324
861.473022,310
861.590698,306
861.708191,318
861.825745,313
861.943298,313
862.060852,313
862.178406,311
862.295959,307
862.413513,314
862.531006,311
862.64856,294
862.766113,314
862.883667,318
863.00116,312
863.118713,309
863.236206,316
863.353699,308
863.471252,312
863.588745,318
863.706177,322
863.82373,311
863.941162,319
864.058716,302
864.176208,315
864.29364,323
864.411194,320
864.528687,324
864.646118,325
864.763611,319
864.881042,316
864.998535,297
865.116028,319
865.233459,300
865.350891,316
865.468384,326
865.585754,325
865.703308,307
865.820679,319
865.938171,311
866.055542,311
866.173035,314
866.290466,321
866.407837,314
866.52533,314
866.6427,316
866.760071,320
866.877563,323
866.994934,329
867.112305,325
867.229736,311
867.347107,307
867.464539,319
867.58197,314
867.699341,309
867.81665,310
867.934082,317
868.051453,327
868.168823,323
868.286194,299
868.403564,329
868.520935,321
868.638306,328
868.755676,314
868.872986,322
868.990295,306
869.107727,319
869.225037,319
869.342346,296
869.459717,318
869.577026,323
869.694336,333
869.811707,320
869.929016,327
870.046326,319
870.163635,302
870.280945,318
870.398254,311
870.515564,331
870.632812,301
870.750183,325
870.867432,322
870.984741,314
871.102051,312
871.219299,307
871.336609,306
871.453918,313
871.571106,321
871.688416,318
871.805664,306
871.922852,324
872.040222,305
872.157471,299
872.274719,328
872.391968,315
872.509155,318
872.626465,317
872.743652,313
872.860962,320
872.978149,309
873.095337,330
873.212646,315
873.329834,321
873.44696,315
873.564209,313
873.681396,310
873.798645,316
873.915894,306
874.03302,314
874.150208,320
874.267456,330
874.384583,299
874.501831,324
874.618958,319
874.736145,326
874.853333,315
874.970459,319
875.087646,298
875.204834,322
875.32196,310
875.439148,317
875.556274,316
875.673401,331
875.790527,317
875.907715,311
876.024841,299
876.141968,316
876.259094,311
876.376282,314
876.493347,322
876.610474,318
876.7276,307
876.844727,325
876.961853,311
877.078918,321
877.195984,317
877.313171,326
877.430237,317
877.547302,318
877.664368,315
877.781433,318
877.898499,312
878.015625,316
878.13269,304
878.249695,309
878.366821,307
878.483887,316
878.600952,328
878.717957,311
878.834961,331
878.952087,315
879.069092,310
879.186157,320
879.303162,304
879.420227,311
879.537231,314
879.654236,318
879.77124,320
879.888306,303
880.005249,312
880.122314,314
880.239319,314
880.356323,313
880.473328,301
880.590271,314
880.707275,321
880.824341,313
880.941284,316
881.058228,320
881.175232,315
881.292236,327
881.40918,311
881.526123,321
881.643066,310
881.760071,325
881.877014,319
881.993958,308
882.11084,315
882.227783,300
882.344727,317
882.46167,309
882.578613,303
882.695618,313
882.812439,313
882.929382,319
883.046326,308
883.163208,322
883.280151,303
883.397034,326
883.513916,312
883.630798,314
883.747742,306
883.864563,330
883.981506,312
884.098389,309
884.21521,309
884.332153,314
884.448975,314
884.565796,313
884.682678,309
884.7995,329
884.916443,300
885.033264,313
885.150085,319
885.266968,315
885.383789,324
885.500671,316
885.617493,327
885.734314,317
885.851196,305
885.967896,327
886.084717,310
886.201599,324
886.318359,295
886.435181,306
886.552002,319
886.668762,324
886.785645,311
886.902344,328
887.019165,314
887.135925,319
887.252747,315
887.369446,329
887.486267,309
887.603027,324
887.719788,310
887.836548,317
887.953247,314
888.070068,318
888.186829,309
888.303528,311
888.420288,312
888.536987,320
888.653687,311
888.770447,318
888.887146,325
889.003967,322
889.120667,315
889.237305,313
889.354065,302
889.470703,320
889.587463,312
889.704163,312
889.820862,312
889.937561,318
890.054199,319
890.170837,312
890.287598,306
890.404236,314
890.520874,315
890.637634,318
890.754211,330
890.87085,320
890.987549,310
891.104187,313
891.220886,321
891.337463,316
891.454102,303
891.57074,314
891.687378,308
891.804077,326
891.920654,311
892.037231,308
892.15387,322
892.270447,329
892.387085,313
892.503723,313
892.6203,322
892.736877,309
892.853516,315
892.970032,320
893.08667,319
893.203186,317
893.319763,324
893.43634,320
893.552917,312
893.669556,306
893.786011,318
893.902588,321
894.019165,313
894.135681,319
894.252197,316
894.368835,324
894.485291,335
894.601868,315
894.718384,317
894.8349,334
894.951355,311
895.067932,314
895.184448,315
895.300964,313
895.417419,309
895.533936,317
895.650452,312
895.766907,321
895.883423,319
895.999878,316
896.116333,309
896.232849,322
896.349304,317
896.465759,313
896.582214,313
896.698669,322
896.815125,316
896.931641,313
897.048035,300
897.164551,329
897.280884,329
897.397339,315
897.513794,325
897.630249,328
897.746582,326
897.863098,320
897.979431,320
898.095886,321
898.212341,297
898.328674,315
898.445129,312
898.561462,333
898.677795,306
898.794312,322
898.910645,323
899.026978,323
899.143433,303
899.259766,329
899.37616,316
899.492493,315
899.608765,304
899.725159,321
899.841553,313
899.957947,298
900.07428,327
900.190552,329
900.306946,309
900.423157,334
900.53949,314
900.655884,317
900.772156,316
900.888489,316
901.004822,314
901.121033,323
901.237366,304
901.353699,312
901.46991,311
901.586304,316
901.702515,311
901.818787,315
901.93512,313
902.051331,329
902.167603,314
902.283875,310
902.400085,308
902.516418,322
902.632629,325
902.74884,307
902.865112,309
902.981384,321
903.097595,329
903.213867,325
903.330017,312
903.446289,319
903.5625,323
903.67865,320
903.794922,313
903.911072,318
904.027344,322
904.143494,320
904.259705,327
904.375916,322
904.492065,310
904.608215,311
904.724426,309
904.840576,328
904.956726,303
905.072876,332
905.189087,331
905.305176,308
905.421387,321
905.537537,327
905.653687,308
905.769775,319
905.885925,319
906.002014,312
906.118164,322
906.234314,307
906.350403,333
906.466492,306
906.582642,308
906.69873,324
906.814758,327
906.930908,316
907.046936,313
907.163086,318
907.279175,323
907.395264,316
907.511353,317
907.62738,306
907.743408,322
907.859497,329
907.975525,308
908.091553,321
908.207703,310
908.32373,323
908.439758,311
908.555786,312
908.671814,318
908.787842,309
908.90387,340
909.019775,325
909.135864,317
909.251892,315
909.367859,318
909.483826,324
909.599854,311
909.715881,309
909.831848,325
909.947815,319
910.063782,316
910.179749,315
910.295776,305
910.411743,323
910.527649,306
910.643616,327
910.759583,311
910.875488,313
910.991455,312
911.107361,317
911.223267,313
911.339294,319
911.4552,306
911.571106,327
911.687073,312
911.802979,327
911.918823,311
912.034729,309
912.150635,316
912.266602,313
912.382446,310
912.498352,324
912.614197,308
912.730103,323
912.846008,321
792.44574,312
792.56488,359
792.68396,377
792.80304,393
792.92218,325
793.041199,308
793.160339,322
793.279419,325
793.398499,327
793.517578,309
793.636658,322
793.755737,325
793.874817,352
793.993896,344
794.112976,335
794.232056,327
794.351074,329
794.470215,330
794.589233,316
794.708313,324
794.827393,315
794.946411,327
795.065552,336
795.18457,324
795.303589,328
795.422668,330
795.541687,334
795.660767,325
795.779846,322
795.898865,323
796.017883,315
796.136963,300
796.255981,331
796.375061,327
796.49408,322
796.613037,321
796.732117,322
796.851135,321
796.970154,319
797.089233,317
797.208191,321
797.327271,332
797.446228,329
797.565186,327
797.684265,327
797.803223,325
797.922241,318
798.04126,307
798.160278,327
798.279297,325
798.398315,317
798.517273,340
798.636292,307
798.75531,316
798.874268,326
798.993286,337
799.112244,322
799.231323,325
799.350281,326
799.469238,321
799.588257,321
799.707153,309
799.826111,318
799.945129,329
800.064087,333
800.183044,315
800.302063,334
800.421021,314
800.539978,335
800.658936,314
800.777893,328
800.896912,320
801.015747,327
801.134705,316
801.253723,317
801.37262,319
801.491638,312
801.610535,322
801.729492,305
801.84845,316
801.967407,322
802.086243,326
802.205261,327
802.324158,332
802.443115,320
802.562073,328
802.680969,329
802.799927,335
802.918762,326
803.037659,327
803.156677,332
803.275574,326
803.39447,327
803.513428,317
803.632263,325
803.751221,317
803.870117,332
803.989014,330
804.107971,325
804.226746,326
804.345642,331
804.4646,333
804.583496,320
804.702393,313
804.821228,317
804.940125,328
805.059021,314
805.177917,324
805.296814,315
805.415649,316
805.534546,327
805.653442,326
805.772278,311
805.891113,317
806.01001,324
806.128906,317
806.247742,325
806.366577,324
806.485413,323
806.604309,340
806.723145,317
806.84198,338
806.960876,313
807.079712,328
807.198486,330
807.317383,323
807.436218,327
807.554993,321
807.673889,325
807.792725,319
807.91156,325
808.030396,332
808.14917,322
808.268005,328
808.386841,323
808.505676,324
808.624451,328
808.743286,323
808.862122,317
808.980896,324
809.099731,324
809.218506,334
809.337341,322
809.456116,320
809.57489,315
809.693726,322
809.8125,312
809.931274,322
810.050049,314
810.168884,327
810.287659,323
810.406372,313
810.525269,318
810.643982,321
810.762756,306
810.881531,336
811.000305,325
811.11908,336
811.237854,325
811.356567,303
811.475403,317
811.594116,329
811.71283,314
811.831604,322
811.950378,324
812.069153,326
812.187927,319
812.30658,330
812.425415,317
812.544128,320
812.662781,317
812.781616,317
812.900269,334
813.019043,312
813.137756,329
813.256531,324
813.375244,321
813.493896,320
813.612671,317
813.731384,329
813.850037,316
813.96875,339
814.087524,330
814.206238,306
814.324951,325
814.443604,314
814.562256,332
814.68103,318
814.799683,322
814.918335,326
815.037109,321
815.155762,329
815.274475,315
815.393188,322
815.511841,330
815.630554,326
815.749146,323
815.867859,322
815.986572,319
816.105164,319
816.223877,317
816.342529,324
816.461182,334
816.579895,319
816.698486,326
816.817139,314
816.935791,334
817.054504,327
817.173096,314
817.291748,320
817.4104,321
817.529053,327
817.647644,312
817.766235,317
817.884949,321
818.00354,320
818.122192,318
818.240845,327
818.359436,313
818.478088,328
818.59668,308
818.715271,321
818.833923,322
818.952515,316
819.071106,325
819.189758,304
819.30835,328
819.426941,319
819.545532,309
819.664124,313
819.782715,310
819.901306,320
820.019897,322
820.138489,322
820.25708,320
820.375671,324
820.494202,323
820.612732,316
820.731384,314
820.849915,327
820.968506,326
821.087097,320
821.205627,302
821.324158,321
821.442749,318
821.561279,316
821.679871,314
821.798401,323
821.916931,324
822.035461,316
822.154053,329
822.272583,327
822.391174,311
822.509583,307
822.628174,314
822.746704,314
822.865234,325
822.983765,305
823.102295,312
823.220825,317
823.339294,314
823.457825,315
823.576355,327
823.694824,326
823.813354,298
823.931885,326
824.050354,323
824.168884,313
824.287354,323
824.405823,315
824.524353,305
824.642822,323
824.761353,305
824.879822,314
824.998291,321
825.116699,326
825.235291,314
825.353699,325
825.472168,314
825.590637,314
825.709106,329
825.827576,315
825.946045,310
826.064453,309
826.182983,317
826.301392,324
826.4198,320
826.53833,320
826.656738,312
826.775208,312
826.893677,326
827.012024,312
827.130493,309
827.248962,308
827.36731,317
827.485779,320
827.604248,311
827.722595,307
827.841064,316
827.959412,319
828.077942,326
828.196289,329
828.314636,312
828.433105,321
828.551514,318
828.669861,318
828.78833,312
828.906677,319
829.025085,321
829.143433,307
829.261841,310
829.38031,322
829.498657,327
829.617004,314
829.735413,327
829.85376,319
829.972107,319
830.090515,326
830.208862,327
830.327209,325
830.445557,308
830.563904,314
830.682312,317
830.800659,314
830.919006,316
831.037354,317
831.155701,315
831.274048,313
831.392395,311
831.51062,307
831.629028,327
831.747314,312
831.865662,312
831.984009,310
832.102356,303
832.220642,318
832.338928,322
832.457275,321
832.575623,311
832.693909,313
832.812134,313
832.930481,315
833.048828,312
833.167114,326
833.2854,318
833.403687,324
833.521973,316
833.640259,309
833.758545,317
833.876831,313
833.995056,311
834.113281,315
834.231628,327
834.349915,307
834.468201,313
834.586426,300
834.704651,318
834.822998,323
834.941162,314
835.059448,336
835.177673,318
835.295959,331
835.414246,308
835.53241,325
835.650635,314
835.768921,305
835.887146,322
836.005371,324
836.123596,315
836.241821,318
836.360046,314
836.478271,316
836.596497,310
836.714722,313
836.832886,318
836.95105,315
837.069336,320
837.1875,322
837.305725,331
837.423889,311
837.542053,299
837.660339,327
837.778503,315
837.896667,317
838.014832,320
838.132996,323
838.25116,316
838.369385,314
838.487488,314
838.605713,317
838.723877,306
838.84198,322
838.960205,321
839.078308,320
839.196472,325
839.314636,304
839.4328,309
839.550964,306
839.669067,307
839.787231,338
839.905396,314
840.023499,307
840.141602,320
840.259766,321
840.377869,321
840.495972,327
840.614136,321
840.732239,331
840.850342,318
840.968445,318
841.086548,319
841.204651,323
841.322754,308
841.440918,305
841.55896,309
841.677002,313
841.795166,324
841.913208,318
842.031311,303
842.149353,315
842.267456,325
842.385498,315
842.503601,315
842.621643,315
842.739746,325
842.857788,316
842.97583,329
843.093933,324
843.211975,311
843.330017,306
843.44812,311
843.566101,316
843.684204,311
843.802246,328
843.920227,319
844.038269,329
844.156311,304
844.274292,311
844.392395,304
844.510376,315
844.628357,308
844.74646,323
844.864441,310
844.982422,311
845.100403,308
845.218384,304
845.336426,325
845.454468,314
845.572449,296
845.69043,307
845.808411,300
845.926453,309
846.044373,312
846.162354,315
846.280396,306
846.398315,319
846.516296,316
846.634216,318
846.752197,313
846.870178,305
846.988098,319
847.106079,315
847.22406,302
847.34198,321
847.4599,327
847.577881,325
847.695801,326
847.813782,316
847.931641,315
848.049561,315
848.167603,321
848.285461,308
848.403381,323
848.521362,315
848.639221,323
848.75708,323
848.875,312
848.99292,317
849.110901,316
849.22876,328
849.34668,327
849.464539,315
849.582458,325
849.700317,302
849.818176,312
849.936096,308
850.053955,316
850.171875,318
850.289673,323
850.407593,319
850.525452,322
850.643311,324
850.761169,324
850.878967,309
850.996887,317
851.114746,328
851.232544,320
851.350403,321
851.468262,310
851.58606,319
851.703979,307
851.821777,327
851.939636,325
852.057434,322
852.175232,326
852.293091,326
852.410889,314
852.528687,314
852.646545,305
852.764343,321
852.88208,314
852.999939,317
853.117676,309
853.235535,322
853.353271,316
853.471069,324
853.588928,330
853.706604,313
853.824402,316
853.9422,330
854.059998,312
854.177734,306
854.295532,310
854.413269,322
854.531006,332
854.648804,321
854.766541,325
854.884277,316
855.002014,310
855.119751,314
855.237549,312
855.355225,307
855.473022,308
855.590698,320
855.708435,309
855.826172,325
855.943848,321
856.061646,316
856.179321,317
856.296997,330
856.414795,332
856.53241,312
856.650085,319
856.767822,313
856.885559,324
857.003174,315
857.120911,315
857.238586,326
857.356201,329
857.473938,326
857.591614,316
857.709351,297
857.826965,320
857.944641,331
858.062317,323
858.179993,308
858.297668,310
858.415283,311
858.532959,320
858.650574,320
858.768188,321
858.885803,313
859.003479,313
859.121094,309
859.23877,325
859.356384,300
859.473999,306
859.591675,317
859.709229,321
859.826843,312
859.944458,307
860.062012,328
860.179626,324
860.297302,311
860.414856,314
860.532471,325
860.650024,315
860.767639,319
860.885193,311
861.002808,320
861.120361,303
861.237976,318
861.35553,310
861.473022,313
861.590698,321
861.708191,322
861.825745,330
861.943298,321
862.060852,322
862.178406,328
862.295959,325
862.413513,329
862.531006,312
862.64856,313
862.766113,297
862.883667,317
863.00116,322
863.118713,348
863.236206,323
863.353699,318
863.471252,311
863.588745,314
863.706177,320
863.82373,318
863.941162,312
864.058716,305
864.176208,310
864.29364,311
864.411194,312
864.528687,331
864.646118,320
864.763611,329
864.881042,322
864.998535,315
865.116028,327
865.233459,324
865.350891,312
865.468384,318
865.585754,312
865.703308,306
865.820679,311
865.938171,307
866.055542,298
866.173035,313
866.290466,319
866.407837,318
866.52533,322
866.6427,314
866.760071,320
866.877563,320
866.994934,301
867.112305,317
867.229736,323
867.347107,318
867.464539,315
867.58197,311
867.699341,324
867.81665,310
867.934082,327
868.051453,327
868.168823,311
868.286194,318
868.403564,324
868.520935,304
868.638306,319
868.755676,310
868.872986,313
868.990295,324
869.107727,308
869.225037,319
869.342346,316
869.459717,321
869.577026,314
869.694336,310
869.811707,320
869.929016,312
870.046326,327
870.163635,320
870.280945,307
870.398254,319
870.515564,317
870.632812,315
870.750183,300
870.867432,312
870.984741,318
871.102051,304
871.219299,315
871.336609,320
871.453918,312
871.571106,311
871.688416,308
871.805664,316
871.922852,321
872.040222,321
872.157471,310
872.274719,316
872.391968,325
872.509155,327
872.626465,316
872.743652,318
872.860962,324
872.978149,325
873.095337,316
873.212646,320
873.329834,320
873.44696,323
873.564209,317
873.681396,307
873.798645,315
873.915894,311
874.03302,316
874.150208,313
874.267456,312
874.384583,329
874.501831,328
874.618958,316
874.736145,310
874.853333,317
874.970459,327
875.087646,314
875.204834,321
875.32196,307
875.439148,319
875.556274,308
875.673401,316
875.790527,322
875.907715,323
876.024841,317
876.141968,315
876.259094,323
876.376282,317
876.493347,312
876.610474,324
876.7276,318
876.844727,317
876.961853,321
877.078918,320
877.195984,324
877.313171,321
877.430237,321
877.547302,312
877.664368,320
877.781433,317
877.898499,327
878.015625,307
878.13269,322
878.249695,324
878.366821,318
878.483887,315
878.600952,314
878.717957,318
878.834961,343
878.952087,313
879.069092,329
879.186157,323
879.303162,319
879.420227,323
879.537231,328
879.654236,309
879.77124,318
879.888306,316
880.005249,321
880.122314,315
880.239319,300
880.356323,313
880.473328,308
880.590271,329
880.707275,331
880.824341,309
880.941284,330
881.058228,321
881.175232,317
881.292236,307
881.40918,322
881.526123,317
881.643066,319
881.760071,311
881.877014,311
881.993958,326
882.11084,322
882.227783,314
882.344727,311
882.46167,326
882.578613,320
882.695618,322
882.812439,321
882.929382,309
883.046326,317
883.163208,323
883.280151,319
883.397034,300
883.513916,313
883.630798,308
883.747742,317
883.864563,310
883.981506,325
884.098389,316
884.21521,330
884.332153,299
884.448975,317
884.565796,316
884.682678,312
884.7995,315
884.916443,329
885.033264,326
885.150085,309
885.266968,317
885.383789,323
885.500671,317
885.617493,331
885.734314,293
885.851196,319
885.967896,317
886.084717,312
886.201599,321
886.318359,315
886.435181,319
886.552002,319
886.668762,311
886.785645,330
886.902344,317
887.019165,317
887.135925,326
887.252747,314
887.369446,320
887.486267,302
887.603027,320
887.719788,324
887.836548,313
887.953247,327
888.070068,329
888.186829,315
888.303528,308
888.420288,306
888.536987,327
888.653687,329
888.770447,326
888.887146,309
889.003967,330
889.120667,307
889.237305,315
889.354065,322
889.470703,314
889.587463,328
889.704163,316
889.820862,311
889.937561,324
890.054199,326
890.170837,318
890.287598,325
890.404236,309
890.520874,323
890.637634,307
890.754211,318
890.87085,318
890.987549,312
891.104187,317
891.220886,317
891.337463,328
891.454102,310
891.57074,324
891.687378,314
891.804077,312
891.920654,323
892.037231,309
892.15387,326
892.270447,321
892.387085,319
892.503723,301
892.6203,311
892.736877,314
892.853516,309
892.970032,308
893.08667,320
893.203186,309
893.319763,315
893.43634,324
893.552917,316
893.669556,312
893.786011,299
893.902588,312
894.019165,328
894.135681,331
894.252197,321
894.368835,315
894.485291,324
894.601868,328
894.718384,321
894.8349,310
894.951355,311
895.067932,309
895.184448,316
895.300964,310
895.417419,329
895.533936,318
895.650452,322
895.766907,328
895.883423,335
895.999878,308
896.116333,302
896.232849,332
896.349304,317
896.465759,317
896.582214,312
896.698669,302
896.815125,318
896.931641,325
897.048035,310
897.164551,320
897.280884,323
897.397339,317
897.513794,339
897.630249,308
897.746582,316
897.863098,302
897.979431,309
898.095886,319
898.212341,320
898.328674,325
898.445129,316
898.561462,311
898.677795,326
898.794312,316
898.910645,326
899.026978,316
899.143433,315
899.259766,317
899.37616,319
899.492493,322
899.608765,317
899.725159,323
899.841553,311
899.957947,310
900.07428,319
900.190552,329
900.306946,319
900.423157,320
900.53949,312
900.655884,310
900.772156,310
900.888489,324
901.004822,318
901.121033,314
901.237366,320
901.353699,306
901.46991,316
901.586304,317
901.702515,328
901.818787,313
901.93512,310
902.051331,308
902.167603,324
902.283875,312
902.400085,325
902.516418,318
902.632629,319
902.74884,319
902.865112,325
902.981384,304
903.097595,326
903.213867,313
903.330017,328
903.446289,309
903.5625,319
903.67865,304
903.794922,310
903.911072,321
904.027344,320
904.143494,318
904.259705,321
904.375916,305
904.492065,327
904.608215,330
904.724426,321
904.840576,319
904.956726,321
905.072876,324
905.189087,324
905.305176,318
905.421387,322
905.537537,312
905.653687,319
905.769775,323
905.885925,324
906.002014,321
906.118164,320
906.234314,322
906.350403,328
906.466492,315
906.582642,311
906.69873,322
906.814758,324
906.930908,322
907.046936,306
907.163086,307
907.279175,329
907.395264,317
907.511353,318
907.62738,318
907.743408,316
907.859497,326
907.975525,331
908.091553,312
908.207703,330
908.32373,328
908.439758,312
908.555786,328
908.671814,316
908.787842,309
908.90387,328
909.019775,317
909.135864,315
909.251892,312
909.367859,324
909.483826,307
909.599854,319
909.715881,321
909.831848,321
909.947815,311
910.063782,329
910.179749,318
910.295776,325
910.411743,317
910.527649,321
910.643616,330
910.759583,313
910.875488,316
910.991455,307
911.107361,316
911.223267,327
911.339294,311
911.4552,326
911.571106,323
911.687073,326
911.802979,316
911.918823,333
912.034729,324
912.150635,319
912.266602,315
912.382446,324
912.498352,305
912.614197,324
912.730103,319
912.846008,317
