792.44574,309
792.56488,327
792.68396,388
792.80304,367
792.92218,323
793.041199,308
793.160339,310
793.279419,336
793.398499,326
793.517578,302
793.636658,320
793.755737,324
793.874817,339
793.993896,337
794.112976,331
794.232056,313
794.351074,298
794.470215,325
794.589233,312
794.708313,327
794.827393,324
794.946411,319
795.065552,325
795.18457,324
795.303589,324
795.422668,314
795.541687,328
795.660767,316
795.779846,315
795.898865,318
796.017883,321
796.136963,329
796.255981,324
796.375061,318
796.49408,312
796.613037,321
796.732117,323
796.851135,316
796.970154,339
797.089233,315
797.208191,334
797.327271,332
797.446228,323
797.565186,320
797.684265,334
797.803223,311
797.922241,319
798.04126,303
798.160278,328
798.279297,316
798.398315,336
798.517273,323
798.636292,327
798.75531,313
798.874268,318
798.993286,316
799.112244,330
799.231323,322
799.350281,324
799.469238,319
799.588257,334
799.707153,319
799.826111,324
799.945129,319
800.064087,322
800.183044,318
800.302063,319
800.421021,308
800.539978,322
800.658936,329
800.777893,327
800.896912,314
801.015747,302
801.134705,321
801.253723,332
801.37262,320
801.491638,309
801.610535,326
801.729492,323
801.84845,321
801.967407,322
802.086243,310
802.205261,329
802.324158,313
802.443115,327
802.562073,317
802.680969,320
802.799927,320
802.918762,320
803.037659,323
803.156677,326
803.275574,321
803.39447,314
803.513428,317
803.632263,314
803.751221,317
803.870117,338
803.989014,315
804.107971,328
804.226746,328
804.345642,329
804.4646,311
804.583496,321
804.702393,322
804.821228,318
804.940125,309
805.059021,326
805.177917,316
805.296814,334
805.415649,320
805.534546,313
805.653442,327
805.772278,323
805.891113,302
806.01001,328
806.128906,314
806.247742,325
806.366577,339
806.485413,304
806.604309,303
806.723145,317
806.84198,316
806.960876,321
807.079712,326
807.198486,317
807.317383,323
807.436218,323
807.554993,324
807.673889,321
807.792725,309
807.91156,325
808.030396,323
808.14917,321
808.268005,312
808.386841,317
808.505676,319
808.624451,316
808.743286,316
808.862122,312
808.980896,315
809.099731,316
809.218506,320
809.337341,324
809.456116,316
809.57489,331
809.693726,320
809.8125,316
809.931274,317
810.050049,306
810.168884,340
810.287659,319
810.406372,310
810.525269,330
810.643982,306
810.762756,312
810.881531,318
811.000305,312
811.11908,314
811.237854,308
811.356567,324
811.475403,309
811.594116,324
811.71283,320
811.831604,318
811.950378,327
812.069153,309
812.187927,316
812.30658,322
812.425415,318
812.544128,311
812.662781,315
812.781616,311
812.900269,318
813.019043,317
813.137756,324
813.256531,318
813.375244,325
813.493896,328
813.612671,323
813.731384,312
813.850037,309
813.96875,307
814.087524,310
814.206238,323
814.324951,319
814.443604,311
814.562256,324
814.68103,318
814.799683,318
814.918335,312
815.037109,311
815.155762,325
815.274475,321
815.393188,324
815.511841,324
815.630554,310
815.749146,320
815.867859,319
815.986572,306
816.105164,311
816.223877,317
816.342529,309
816.461182,320
816.579895,313
816.698486,322
816.817139,323
816.935791,322
817.054504,310
817.173096,324
817.291748,318
817.4104,322
817.529053,325
817.647644,313
817.766235,306
817.884949,332
818.00354,322
818.122192,320
818.240845,322
818.359436,313
818.478088,298
818.59668,313
818.715271,319
818.833923,312
818.952515,321
819.071106,320
819.189758,314
819.30835,327
819.426941,313
819.545532,313
819.664124,305
819.782715,316
819.901306,313
820.019897,323
820.138489,315
820.25708,314
820.375671,316
820.494202,339
820.612732,305
820.731384,312
820.849915,316
820.968506,328
821.087097,307
821.205627,311
821.324158,311
821.442749,315
821.561279,306
821.679871,323
821.798401,311
821.916931,314
822.035461,312
822.154053,323
822.272583,322
822.391174,319
822.509583,312
822.628174,321
822.746704,306
822.865234,325
822.983765,320
823.102295,312
823.220825,315
823.339294,322
823.457825,302
823.576355,315
823.694824,315
823.813354,312
823.931885,313
824.050354,323
824.168884,317
824.287354,301
824.405823,331
824.524353,322
824.642822,302
824.761353,305
824.879822,319
824.998291,325
825.116699,318
825.235291,318
825.353699,324
825.472168,309
825.590637,308
825.709106,322
825.827576,313
825.946045,317
826.064453,316
826.182983,314
826.301392,304
826.4198,325
826.53833,310
826.656738,313
826.775208,324
826.893677,322
827.012024,314
827.130493,325
827.248962,297
827.36731,326
827.485779,323
827.604248,311
827.722595,319
827.841064,312
827.959412,309
828.077942,327
828.196289,309
828.314636,318
828.433105,306
828.551514,324
828.669861,294
828.78833,322
828.906677,307
829.025085,306
829.143433,323
829.261841,315
829.38031,319
829.498657,317
829.617004,307
829.735413,307
829.85376,304
829.972107,328
830.090515,316
830.208862,319
830.327209,317
830.445557,318
830.563904,298
830.682312,314
830.800659,311
830.919006,322
831.037354,294
831.155701,315
831.274048,303
831.392395,309
831.51062,312
831.629028,315
831.747314,320
831.865662,317
831.984009,319
832.102356,317
832.220642,311
832.338928,316
832.457275,307
832.575623,323
832.693909,317
832.812134,317
832.930481,312
833.048828,312
833.167114,312
833.2854,309
833.403687,306
833.521973,325
833.640259,318
833.758545,308
833.876831,303
833.995056,321
834.113281,300
834.231628,310
834.349915,322
834.468201,311
834.586426,299
834.704651,328
834.822998,304
834.941162,320
835.059448,310
835.177673,316
835.295959,320
835.414246,313
835.53241,312
835.650635,317
835.768921,324
835.887146,318
836.005371,321
836.123596,313
836.241821,301
836.360046,310
836.478271,301
836.596497,323
836.714722,313
836.832886,327
836.95105,308
837.069336,319
837.1875,323
837.305725,311
837.423889,327
837.542053,300
837.660339,306
837.778503,324
837.896667,317
838.014832,319
838.132996,300
838.25116,308
838.369385,311
838.487488,312
838.605713,315
838.723877,309
838.84198,311
838.960205,309
839.078308,316
839.196472,314
839.314636,302
839.4328,315
839.550964,319
839.669067,307
839.787231,304
839.905396,312
840.023499,313
840.141602,312
840.259766,307
840.377869,312
840.495972,327
840.614136,317
840.732239,317
840.850342,311
840.968445,313
841.086548,306
841.204651,317
841.322754,314
841.440918,317
841.55896,316
841.677002,314
841.795166,327
841.913208,311
842.031311,311
842.149353,315
842.267456,323
842.385498,315
842.503601,307
842.621643,306
842.739746,332
842.857788,311
842.97583,324
843.093933,308
843.211975,319
843.330017,316
843.44812,304
843.566101,299
843.684204,314
843.802246,311
843.920227,323
844.038269,313
844.156311,331
844.274292,303
844.392395,324
844.510376,310
844.628357,316
844.74646,314
844.864441,314
844.982422,316
845.100403,319
845.218384,300
845.336426,324
845.454468,319
845.572449,316
845.69043,324
845.808411,333
845.926453,315
846.044373,315
846.162354,313
846.280396,323
846.398315,314
846.516296,330
846.634216,319
846.752197,325
846.870178,311
846.988098,303
847.106079,318
847.22406,315
847.34198,308
847.4599,313
847.577881,317
847.695801,322
847.813782,311
847.931641,330
848.049561,311
848.167603,303
848.285461,314
848.403381,318
848.521362,310
848.639221,322
848.75708,309
848.875,320
848.99292,303
849.110901,300
849.22876,315
849.34668,326
849.464539,307
849.582458,320
849.700317,311
849.818176,317
849.936096,312
850.053955,307
850.171875,305
850.289673,303
850.407593,306
850.525452,322
850.643311,317
850.761169,312
850.878967,314
850.996887,314
851.114746,300
851.232544,326
851.350403,319
851.468262,309
851.58606,299
851.703979,318
851.821777,318
851.939636,313
852.057434,304
852.175232,305
852.293091,325
852.410889,313
852.528687,309
852.646545,314
852.764343,315
852.88208,325
852.999939,327
853.117676,314
853.235535,316
853.353271,314
853.471069,328
853.588928,317
853.706604,307
853.824402,323
853.9422,314
854.059998,319
854.177734,309
854.295532,310
854.413269,309
854.531006,315
854.648804,314
854.766541,319
854.884277,314
855.002014,305
855.119751,304
855.237549,316
855.355225,334
855.473022,315
855.590698,307
855.708435,316
855.826172,299
855.943848,322
856.061646,307
856.179321,317
856.296997,318
856.414795,323
856.53241,311
856.650085,312
856.767822,324
856.885559,322
857.003174,308
857.120911,318
857.238586,302
857.356201,322
857.473938,325
857.591614,319
857.709351,304
857.826965,320
857.944641,317
858.062317,324
858.179993,312
858.297668,308
858.415283,322
858.532959,327
858.650574,314
858.768188,324
858.885803,318
859.003479,307
859.121094,321
859.23877,314
859.356384,314
859.473999,312
859.591675,320
859.709229,315
859.826843,312
859.944458,323
860.062012,332
860.179626,313
860.297302,305
860.414856,318
860.532471,303
860.650024,325
860.767639,322
860.885193,316
861.002808,317
861.120361,315
861.237976,307
861.35553,306
861.473022,323
861.590698,322
861.708191,312
861.825745,308
861.943298,307
862.060852,315
862.178406,320
862.295959,316
862.413513,311
862.531006,318
862.64856,316
862.766113,323
862.883667,313
863.00116,323
863.118713,305
863.236206,319
863.353699,316
863.471252,311
863.588745,325
863.706177,318
863.82373,312
863.941162,319
864.058716,308
864.176208,319
864.29364,311
864.411194,324
864.528687,316
864.646118,311
864.763611,313
864.881042,316
864.998535,313
865.116028,310
865.233459,308
865.350891,324
865.468384,305
865.585754,325
865.703308,311
865.820679,310
865.938171,311
866.055542,314
866.173035,311
866.290466,322
866.407837,302
866.52533,319
866.6427,309
866.760071,316
866.877563,302
866.994934,316
867.112305,315
867.229736,336
867.347107,292
867.464539,316
867.58197,315
867.699341,324
867.81665,316
867.934082,305
868.051453,309
868.168823,317
868.286194,340
868.403564,304
868.520935,307
868.638306,317
868.755676,306
868.872986,316
868.990295,316
869.107727,305
869.225037,317
869.342346,309
869.459717,306
869.577026,317
869.694336,311
869.811707,320
869.929016,310
870.046326,322
870.163635,298
870.280945,314
870.398254,325
870.515564,318
870.632812,320
870.750183,326
870.867432,316
870.984741,312
871.102051,307
871.219299,323
871.336609,317
871.453918,316
871.571106,306
871.688416,323
871.805664,312
871.922852,315
872.040222,305
872.157471,324
872.274719,303
872.391968,317
872.509155,307
872.626465,314
872.743652,323
872.860962,322
872.978149,322
873.095337,320
873.212646,305
873.329834,322
873.44696,303
873.564209,318
873.681396,318
873.798645,313
873.915894,312
874.03302,315
874.150208,313
874.267456,314
874.384583,317
874.501831,312
874.618958,299
874.736145,306
874.853333,305
874.970459,317
875.087646,315
875.204834,319
875.32196,316
875.439148,311
875.556274,323
875.673401,325
875.790527,316
875.907715,304
876.024841,319
876.141968,322
876.259094,316
876.376282,304
876.493347,302
876.610474,319
876.7276,306
876.844727,313
876.961853,311
877.078918,309
877.195984,328
877.313171,322
877.430237,308
877.547302,316
877.664368,318
877.781433,307
877.898499,311
878.015625,308
878.13269,309
878.249695,316
878.366821,315
878.483887,319
878.600952,315
878.717957,315
878.834961,317
878.952087,332
879.069092,305
879.186157,318
879.303162,310
879.420227,299
879.537231,305
879.654236,329
879.77124,315
879.888306,319
880.005249,313
880.122314,312
880.239319,322
880.356323,310
880.473328,310
880.590271,325
880.707275,313
880.824341,323
880.941284,320
881.058228,317
881.175232,307
881.292236,331
881.40918,314
881.526123,316
881.643066,310
881.760071,318
881.877014,316
881.993958,303
882.11084,315
882.227783,313
882.344727,322
882.46167,313
882.578613,305
882.695618,308
882.812439,313
882.929382,313
883.046326,315
883.163208,318
883.280151,301
883.397034,316
883.513916,319
883.630798,309
883.747742,300
883.864563,308
883.981506,312
884.098389,315
884.21521,312
884.332153,308
884.448975,310
884.565796,316
884.682678,313
884.7995,322
884.916443,308
885.033264,326
885.150085,308
885.266968,329
885.383789,323
885.500671,308
885.617493,321
885.734314,319
885.851196,317
885.967896,320
886.084717,307
886.201599,321
886.318359,302
886.435181,324
886.552002,310
886.668762,324
886.785645,318
886.902344,306
887.019165,324
887.135925,314
887.252747,316
887.369446,322
887.486267,303
887.603027,310
887.719788,307
887.836548,322
887.953247,317
888.070068,325
888.186829,314
888.303528,320
888.420288,310
888.536987,325
888.653687,317
888.770447,327
888.887146,307
889.003967,309
889.120667,328
889.237305,326
889.354065,314
889.470703,304
889.587463,307
889.704163,314
889.820862,321
889.937561,318
890.054199,311
890.170837,314
890.287598,314
890.404236,304
890.520874,311
890.637634,318
890.754211,317
890.87085,309
890.987549,314
891.104187,324
891.220886,317
891.337463,318
891.454102,321
891.57074,328
891.687378,304
891.804077,309
891.920654,324
892.037231,318
892.15387,309
892.270447,305
892.387085,311
892.503723,309
892.6203,305
892.736877,305
892.853516,318
892.970032,337
893.08667,310
893.203186,328
893.319763,306
893.43634,327
893.552917,318
893.669556,322
893.786011,317
893.902588,318
894.019165,320
894.135681,311
894.252197,316
894.368835,307
894.485291,308
894.601868,317
894.718384,332
894.8349,310
894.951355,315
895.067932,306
895.184448,293
895.300964,322
895.417419,312
895.533936,321
895.650452,315
895.766907,327
895.883423,307
895.999878,321
896.116333,315
896.232849,330
896.349304,319
896.465759,316
896.582214,307
896.698669,330
896.815125,317
896.931641,321
897.048035,303
897.164551,322
897.280884,316
897.397339,322
897.513794,298
897.630249,323
897.746582,308
897.863098,296
897.979431,319
898.095886,325
898.212341,324
898.328674,312
898.445129,318
898.561462,329
898.677795,315
898.794312,308
898.910645,312
899.026978,327
899.143433,311
899.259766,323
899.37616,312
899.492493,309
899.608765,322
899.725159,310
899.841553,305
899.957947,318
900.07428,305
900.190552,315
900.306946,312
900.423157,313
900.53949,321
900.655884,315
900.772156,309
900.888489,317
901.004822,324
901.121033,331
901.237366,314
901.353699,310
901.46991,317
901.586304,319
901.702515,314
901.818787,304
901.93512,304
902.051331,325
902.167603,309
902.283875,333
902.400085,308
902.516418,312
902.632629,304
902.74884,331
902.865112,307
902.981384,316
903.097595,321
903.213867,314
903.330017,320
903.446289,313
903.5625,304
903.67865,325
903.794922,312
903.911072,321
904.027344,310
904.143494,327
904.259705,318
904.375916,326
904.492065,325
904.608215,315
904.724426,309
904.840576,323
904.956726,301
905.072876,319
905.189087,309
905.305176,318
905.421387,310
905.537537,325
905.653687,317
905.769775,305
905.885925,335
906.002014,328
906.118164,311
906.234314,334
906.350403,304
906.466492,317
906.582642,306
906.69873,316
906.814758,319
906.930908,311
907.046936,316
907.163086,304
907.279175,319
907.395264,326
907.511353,311
907.62738,310
907.743408,317
907.859497,313
907.975525,319
908.091553,318
908.207703,314
908.32373,304
908.439758,318
908.555786,314
908.671814,325
908.787842,320
908.90387,304
909.019775,332
909.135864,312
909.251892,316
909.367859,315
909.483826,314
909.599854,312
909.715881,326
909.831848,329
909.947815,309
910.063782,315
910.179749,308
910.295776,311
910.411743,315
910.527649,314
910.643616,321
910.759583,303
910.875488,333
910.991455,309
911.107361,321
911.223267,311
911.339294,320
911.4552,313
911.571106,309
911.687073,303
911.802979,317
911.918823,311
912.034729,321
912.150635,322
912.266602,321
912.382446,319
912.498352,315
912.614197,318
912.730103,322
912.846008,304
792.44574,293
792.56488,331
792.68396,389
792.80304,382
792.92218,323
793.041199,297
793.160339,302
793.279419,315
793.398499,324
793.517578,306
793.636658,317
793.755737,319
793.874817,346
793.993896,326
794.112976,329
794.232056,322
794.351074,314
794.470215,326
794.589233,319
794.708313,309
794.827393,323
794.946411,326
795.065552,334
795.18457,339
795.303589,330
795.422668,317
795.541687,307
795.660767,320
795.779846,319
795.898865,324
796.017883,322
796.136963,320
796.255981,335
796.375061,307
796.49408,320
796.613037,328
796.732117,310
796.851135,321
796.970154,330
797.089233,316
797.208191,307
797.327271,320
797.446228,307
797.565186,321
797.684265,326
797.803223,322
797.922241,330
798.04126,311
798.160278,324
798.279297,314
798.398315,326
798.517273,315
798.636292,335
798.75531,317
798.874268,328
798.993286,313
799.112244,320
799.231323,324
799.350281,326
799.469238,310
799.588257,331
799.707153,328
799.826111,311
799.945129,322
800.064087,325
800.183044,315
800.302063,337
800.421021,324
800.539978,323
800.658936,304
800.777893,314
800.896912,323
801.015747,319
801.134705,323
801.253723,312
801.37262,311
801.491638,325
801.610535,317
801.729492,305
801.84845,316
801.967407,323
802.086243,312
802.205261,320
802.324158,321
802.443115,322
802.562073,305
802.680969,295
802.799927,329
802.918762,317
803.037659,309
803.156677,334
803.275574,325
803.39447,319
803.513428,314
803.632263,306
803.751221,320
803.870117,312
803.989014,330
804.107971,308
804.226746,320
804.345642,318
804.4646,321
804.583496,320
804.702393,304
804.821228,306
804.940125,293
805.059021,322
805.177917,322
805.296814,312
805.415649,311
805.534546,332
805.653442,315
805.772278,318
805.891113,316
806.01001,310
806.128906,304
806.247742,317
806.366577,317
806.485413,311
806.604309,321
806.723145,319
806.84198,327
806.960876,311
807.079712,343
807.198486,324
807.317383,322
807.436218,322
807.554993,327
807.673889,320
807.792725,314
807.91156,321
808.030396,310
808.14917,331
808.268005,311
808.386841,317
808.505676,314
808.624451,316
808.743286,327
808.862122,310
808.980896,325
809.099731,309
809.218506,325
809.337341,320
809.456116,318
809.57489,330
809.693726,321
809.8125,320
809.931274,316
810.050049,310
810.168884,313
810.287659,316
810.406372,325
810.525269,321
810.643982,315
810.762756,324
810.881531,312
811.000305,314
811.11908,315
811.237854,320
811.356567,315
811.475403,303
811.594116,319
811.71283,316
811.831604,316
811.950378,323
812.069153,320
812.187927,312
812.30658,335
812.425415,306
812.544128,323
812.662781,315
812.781616,311
812.900269,320
813.019043,314
813.137756,312
813.256531,323
813.375244,328
813.493896,313
813.612671,325
813.731384,311
813.850037,315
813.96875,321
814.087524,310
814.206238,305
814.324951,321
814.443604,318
814.562256,319
814.68103,325
814.799683,320
814.918335,309
815.037109,321
815.155762,305
815.274475,321
815.393188,316
815.511841,334
815.630554,323
815.749146,309
815.867859,323
815.986572,325
816.105164,317
816.223877,323
816.342529,324
816.461182,321
816.579895,317
816.698486,320
816.817139,323
816.935791,320
817.054504,315
817.173096,326
817.291748,320
817.4104,332
817.529053,325
817.647644,326
817.766235,322
817.884949,309
818.00354,317
818.122192,323
818.240845,314
818.359436,320
818.478088,323
818.59668,322
818.715271,311
818.833923,315
818.952515,322
819.071106,309
819.189758,327
819.30835,308
819.426941,310
819.545532,315
819.664124,311
819.782715,330
819.901306,320
820.019897,316
820.138489,315
820.25708,310
820.375671,313
820.494202,301
820.612732,318
820.731384,311
820.849915,316
820.968506,304
821.087097,317
821.205627,314
821.324158,317
821.442749,329
821.561279,315
821.679871,305
821.798401,316
821.916931,322
822.035461,321
822.154053,317
822.272583,317
822.391174,315
822.509583,306
822.628174,325
822.746704,311
822.865234,312
822.983765,296
823.102295,312
823.220825,320
823.339294,311
823.457825,304
823.576355,309
823.694824,316
823.813354,305
823.931885,319
824.050354,306
824.168884,316
824.287354,316
824.405823,310
824.524353,315
824.642822,314
824.761353,311
824.879822,315
824.998291,320
825.116699,313
825.235291,301
825.353699,312
825.472168,321
825.590637,319
825.709106,303
825.827576,313
825.946045,330
826.064453,322
826.182983,298
826.301392,310
826.4198,315
826.53833,323
826.656738,312
826.775208,303
826.893677,313
827.012024,311
827.130493,317
827.248962,305
827.36731,315
827.485779,316
827.604248,320
827.722595,320
827.841064,313
827.959412,326
828.077942,310
828.196289,305
828.314636,310
828.433105,305
828.551514,309
828.669861,332
828.78833,310
828.906677,313
829.025085,319
829.143433,310
829.261841,320
829.38031,317
829.498657,304
829.617004,313
829.735413,306
829.85376,320
829.972107,322
830.090515,322
830.208862,315
830.327209,320
830.445557,317
830.563904,323
830.682312,303
830.800659,309
830.919006,329
831.037354,306
831.155701,314
831.274048,326
831.392395,318
831.51062,306
831.629028,305
831.747314,323
831.865662,316
831.984009,302
832.102356,309
832.220642,307
832.338928,321
832.457275,307
832.575623,322
832.693909,307
832.812134,310
832.930481,319
833.048828,314
833.167114,315
833.2854,320
833.403687,307
833.521973,320
833.640259,326
833.758545,311
833.876831,306
833.995056,321
834.113281,313
834.231628,298
834.349915,324
834.468201,310
834.586426,323
834.704651,329
834.822998,312
834.941162,304
835.059448,308
835.177673,315
835.295959,302
835.414246,309
835.53241,316
835.650635,314
835.768921,308
835.887146,322
836.005371,308
836.123596,313
836.241821,312
836.360046,325
836.478271,319
836.596497,329
836.714722,312
836.832886,302
836.95105,323
837.069336,300
837.1875,324
837.305725,316
837.423889,318
837.542053,306
837.660339,327
837.778503,322
837.896667,315
838.014832,307
838.132996,321
838.25116,324
838.369385,314
838.487488,317
838.605713,314
838.723877,318
838.84198,313
838.960205,303
839.078308,317
839.196472,311
839.314636,309
839.4328,311
839.550964,322
839.669067,317
839.787231,313
839.905396,313
840.023499,314
840.141602,320
840.259766,334
840.377869,306
840.495972,316
840.614136,310
840.732239,315
840.850342,311
840.968445,327
841.086548,313
841.204651,315
841.322754,320
841.440918,309
841.55896,302
841.677002,312
841.795166,316
841.913208,324
842.031311,333
842.149353,315
842.267456,319
842.385498,307
842.503601,308
842.621643,306
842.739746,318
842.857788,310
842.97583,312
843.093933,311
843.211975,322
843.330017,320
843.44812,311
843.566101,313
843.684204,312
843.802246,303
843.920227,330
844.038269,315
844.156311,307
844.274292,302
844.392395,322
844.510376,317
844.628357,313
844.74646,305
844.864441,309
844.982422,314
845.100403,318
845.218384,326
845.336426,293
845.454468,314
845.572449,312
845.69043,314
845.808411,318
845.926453,318
846.044373,303
846.162354,296
846.280396,310
846.398315,317
846.516296,300
846.634216,317
846.752197,322
846.870178,316
846.988098,322
847.106079,323
847.22406,309
847.34198,315
847.4599,314
847.577881,318
847.695801,313
847.813782,312
847.931641,297
848.049561,318
848.167603,316
848.285461,320
848.403381,331
848.521362,321
848.639221,306
848.75708,325
848.875,316
848.99292,327
849.110901,304
849.22876,317
849.34668,307
849.464539,308
849.582458,310
849.700317,324
849.818176,292
849.936096,309
850.053955,310
850.171875,307
850.289673,319
850.407593,319
850.525452,298
850.643311,328
850.761169,318
850.878967,306
850.996887,319
851.114746,312
851.232544,313
851.350403,318
851.468262,315
851.58606,309
851.703979,314
851.821777,313
851.939636,304
852.057434,330
852.175232,309
852.293091,316
852.410889,316
852.528687,322
852.646545,315
852.764343,318
852.88208,323
852.999939,317
853.117676,300
853.235535,309
853.353271,307
853.471069,306
853.588928,318
853.706604,329
853.824402,313
853.9422,316
854.059998,309
854.177734,309
854.295532,301
854.413269,316
854.531006,305
854.648804,317
854.766541,313
854.884277,340
855.002014,317
855.119751,304
855.237549,327
855.355225,325
855.473022,318
855.590698,313
855.708435,308
855.826172,325
855.943848,316
856.061646,317
856.179321,314
856.296997,318
856.414795,314
856.53241,315
856.650085,319
856.767822,312
856.885559,323
857.003174,333
857.120911,308
857.238586,324
857.356201,309
857.473938,304
857.591614,317
857.709351,318
857.826965,313
857.944641,322
858.062317,316
858.179993,342
858.297668,306
858.415283,321
858.532959,327
858.650574,301
858.768188,307
858.885803,311
859.003479,326
859.121094,308
859.23877,305
859.356384,316
859.473999,301
859.591675,316
859.709229,318
859.826843,310
859.944458,322
860.062012,307
860.179626,309
860.297302,298
860.414856,322
860.532471,309
860.650024,310
860.767639,322
860.885193,321
861.002808,314
861.120361,314
861.237976,318
861.35553,324
861.473022,320
861.590698,309
861.708191,322
861.825745,306
861.943298,317
862.060852,325
862.178406,306
862.295959,313
862.413513,316
862.531006,293
862.64856,321
862.766113,313
862.883667,316
863.00116,317
863.118713,315
863.236206,330
863.353699,306
863.471252,329
863.588745,312
863.706177,321
863.82373,313
863.941162,315
864.058716,317
864.176208,306
864.29364,318
864.411194,300
864.528687,320
864.646118,317
864.763611,321
864.881042,309
864.998535,316
865.116028,324
865.233459,320
865.350891,301
865.468384,321
865.585754,309
865.703308,311
865.820679,304
865.938171,319
866.055542,314
866.173035,300
866.290466,317
866.407837,323
866.52533,315
866.6427,314
866.760071,326
866.877563,308
866.994934,313
867.112305,323
867.229736,330
867.347107,315
867.464539,304
867.58197,319
867.699341,320
867.81665,300
867.934082,309
868.051453,327
868.168823,309
868.286194,309
868.403564,316
868.520935,321
868.638306,314
868.755676,319
868.872986,308
868.990295,321
869.107727,319
869.225037,319
869.342346,323
869.459717,314
869.577026,325
869.694336,313
869.811707,307
869.929016,316
870.046326,320
870.163635,312
870.280945,322
870.398254,306
870.515564,315
870.632812,311
870.750183,311
870.867432,318
870.984741,312
871.102051,315
871.219299,327
871.336609,314
871.453918,309
871.571106,325
871.688416,316
871.805664,317
871.922852,307
872.040222,330
872.157471,315
872.274719,324
872.391968,309
872.509155,316
872.626465,323
872.743652,310
872.860962,336
872.978149,316
873.095337,310
873.212646,305
873.329834,310
873.44696,322
873.564209,312
873.681396,309
873.798645,315
873.915894,323
874.03302,328
874.150208,321
874.267456,309
874.384583,307
874.501831,318
874.618958,328
874.736145,300
874.853333,313
874.970459,302
875.087646,314
875.204834,323
875.32196,325
875.439148,324
875.556274,309
875.673401,318
875.790527,317
875.907715,311
876.024841,313
876.141968,308
876.259094,319
876.376282,304
876.493347,328
876.610474,319
876.7276,308
876.844727,316
876.961853,317
877.078918,315
877.195984,302
877.313171,316
877.430237,311
877.547302,299
877.664368,315
877.781433,307
877.898499,321
878.015625,305
878.13269,311
878.249695,311
878.366821,312
878.483887,311
878.600952,312
878.717957,319
878.834961,314
878.952087,312
879.069092,308
879.186157,318
879.303162,312
879.420227,315
879.537231,305
879.654236,318
879.77124,322
879.888306,317
880.005249,311
880.122314,309
880.239319,332
880.356323,321
880.473328,320
880.590271,321
880.707275,313
880.824341,315
880.941284,322
881.058228,324
881.175232,321
881.292236,310
881.40918,310
881.526123,313
881.643066,327
881.760071,302
881.877014,326
881.993958,318
882.11084,312
882.227783,317
882.344727,319
882.46167,320
882.578613,312
882.695618,316
882.812439,329
882.929382,328
883.046326,326
883.163208,310
883.280151,305
883.397034,308
883.513916,324
883.630798,312
883.747742,305
883.864563,307
883.981506,319
884.098389,319
884.21521,315
884.332153,312
884.448975,314
884.565796,317
884.682678,306
884.7995,304
884.916443,312
885.033264,324
885.150085,332
885.266968,301
885.383789,322
885.500671,320
885.617493,311
885.734314,325
885.851196,310
885.967896,313
886.084717,312
886.201599,327
886.318359,324
886.435181,326
886.552002,309
886.668762,307
886.785645,315
886.902344,318
887.019165,313
887.135925,314
887.252747,322
887.369446,317
887.486267,311
887.603027,316
887.719788,329
887.836548,322
887.953247,313
888.070068,306
888.186829,312
888.303528,306
888.420288,313
888.536987,317
888.653687,326
888.770447,318
888.887146,320
889.003967,327
889.120667,318
889.237305,307
889.354065,324
889.470703,323
889.587463,306
889.704163,307
889.820862,323
889.937561,310
890.054199,321
890.170837,317
890.287598,310
890.404236,308
890.520874,304
890.637634,321
890.754211,317
890.87085,305
890.987549,316
891.104187,326
891.220886,319
891.337463,319
891.454102,321
891.57074,318
891.687378,324
891.804077,288
891.920654,327
892.037231,309
892.15387,312
892.270447,312
892.387085,312
892.503723,324
892.6203,315
892.736877,309
892.853516,305
892.970032,322
893.08667,320
893.203186,313
893.319763,318
893.43634,317
893.552917,330
893.669556,314
893.786011,321
893.902588,319
894.019165,315
894.135681,314
894.252197,304
894.368835,321
894.485291,319
894.601868,311
894.718384,312
894.8349,320
894.951355,331
895.067932,324
895.184448,314
895.300964,314
895.417419,314
895.533936,307
895.650452,325
895.766907,322
895.883423,315
895.999878,306
896.116333,318
896.232849,319
896.349304,317
896.465759,308
896.582214,331
896.698669,320
896.815125,314
896.931641,304
897.048035,327
897.164551,318
897.280884,309
897.397339,312
897.513794,331
897.630249,325
897.746582,320
897.863098,303
897.979431,314
898.095886,320
898.212341,328
898.328674,318
898.445129,306
898.561462,321
898.677795,314
898.794312,323
898.910645,319
899.026978,304
899.143433,317
899.259766,307
899.37616,320
899.492493,314
899.608765,313
899.725159,322
899.841553,309
899.957947,320
900.07428,318
900.190552,317
900.306946,316
900.423157,307
900.53949,320
900.655884,317
900.772156,312
900.888489,309
901.004822,313
901.121033,319
901.237366,319
901.353699,298
901.46991,303
901.586304,318
901.702515,327
901.818787,315
901.93512,316
902.051331,331
902.167603,322
902.283875,309
902.400085,311
902.516418,320
902.632629,322
902.74884,314
902.865112,322
902.981384,320
903.097595,317
903.213867,314
903.330017,319
903.446289,315
903.5625,325
903.67865,320
903.794922,319
903.911072,311
904.027344,319
904.143494,321
904.259705,313
904.375916,332
904.492065,317
904.608215,306
904.724426,321
904.840576,320
904.956726,318
905.072876,313
905.189087,329
905.305176,315
905.421387,323
905.537537,315
905.653687,314
905.769775,312
905.885925,325
906.002014,306
906.118164,322
906.234314,312
906.350403,315
906.466492,308
906.582642,321
906.69873,316
906.814758,335
906.930908,303
907.046936,317
907.163086,304
907.279175,325
907.395264,298
907.511353,328
907.62738,312
907.743408,319
907.859497,312
907.975525,305
908.091553,322
908.207703,313
908.32373,323
908.439758,307
908.555786,320
908.671814,308
908.787842,318
908.90387,304
909.019775,317
909.135864,321
909.251892,319
909.367859,323
909.483826,321
909.599854,313
909.715881,325
909.831848,321
909.947815,314
910.063782,310
910.179749,310
910.295776,319
910.411743,308
910.527649,313
910.643616,314
910.759583,313
910.875488,325
910.991455,318
911.107361,320
911.223267,313
911.339294,323
911.4552,310
911.571106,310
911.687073,323
911.802979,322
911.918823,319
912.034729,322
912.150635,314
912.266602,319
912.382446,308
912.498352,309
912.614197,306
912.730103,321
912.846008,304
792.44574,304
792.56488,335
792.68396,388
792.80304,368
792.92218,326
793.041199,288
793.160339,318
793.279419,326
793.398499,321
793.517578,298
793.636658,321
793.755737,327
793.874817,329
793.993896,335
794.112976,324
794.232056,327
794.351074,318
794.470215,319
794.589233,326
794.708313,311
794.827393,318
794.946411,322
795.065552,338
795.18457,335
795.303589,333
795.422668,320
795.541687,330
795.660767,319
795.779846,322
795.898865,322
796.017883,321
796.136963,317
796.255981,323
796.375061,332
796.49408,316
796.613037,323
796.732117,323
796.851135,327
796.970154,326
797.089233,320
797.208191,319
797.327271,324
797.446228,335
797.565186,328
797.684265,329
797.803223,322
797.922241,333
798.04126,300
798.160278,329
798.279297,309
798.398315,340
798.517273,311
798.636292,330
798.75531,330
798.874268,324
798.993286,325
799.112244,319
799.231323,315
799.350281,313
799.469238,321
799.588257,311
799.707153,318
799.826111,322
799.945129,319
800.064087,326
800.183044,322
800.302063,320
800.421021,309
800.539978,321
800.658936,322
800.777893,322
800.896912,323
801.015747,314
801.134705,320
801.253723,320
801.37262,305
801.491638,312
801.610535,318
801.729492,328
801.84845,317
801.967407,313
802.086243,314
802.205261,317
802.324158,317
802.443115,322
802.562073,317
802.680969,323
802.799927,323
802.918762,321
803.037659,323
803.156677,327
803.275574,312
803.39447,326
803.513428,301
803.632263,314
803.751221,324
803.870117,312
803.989014,315
804.107971,322
804.226746,330
804.345642,316
804.4646,321
804.583496,314
804.702393,317
804.821228,328
804.940125,324
805.059021,319
805.177917,318
805.296814,326
805.415649,328
805.534546,317
805.653442,314
805.772278,316
805.891113,317
806.01001,315
806.128906,309
806.247742,325
806.366577,322
806.485413,326
806.604309,320
806.723145,332
806.84198,321
806.960876,324
807.079712,307
807.198486,323
807.317383,310
807.436218,323
807.554993,318
807.673889,326
807.792725,340
807.91156,311
808.030396,318
808.14917,326
808.268005,316
808.386841,319
808.505676,325
808.624451,316
808.743286,323
808.862122,332
808.980896,318
809.099731,320
809.218506,313
809.337341,331
809.456116,324
809.57489,313
809.693726,317
809.8125,306
809.931274,312
810.050049,316
810.168884,329
810.287659,313
810.406372,324
810.525269,318
810.643982,321
810.762756,317
810.881531,320
811.000305,328
811.11908,327
811.237854,328
811.356567,318
811.475403,328
811.594116,324
811.71283,311
811.831604,316
811.950378,314
812.069153,318
812.187927,314
812.30658,323
812.425415,335
812.544128,310
812.662781,318
812.781616,324
812.900269,319
813.019043,305
813.137756,326
813.256531,320
813.375244,323
813.493896,322
813.612671,335
813.731384,314
813.850037,316
813.96875,309
814.087524,320
814.206238,317
814.324951,329
814.443604,306
814.562256,313
814.68103,311
814.799683,332
814.918335,311
815.037109,327
815.155762,316
815.274475,307
815.393188,319
815.511841,327
815.630554,312
815.749146,317
815.867859,313
815.986572,317
816.105164,327
816.223877,321
816.342529,318
816.461182,325
816.579895,309
816.698486,320
816.817139,311
816.935791,332
817.054504,325
817.173096,336
817.291748,334
817.4104,312
817.529053,310
817.647644,316
817.766235,309
817.884949,320
818.00354,302
818.122192,319
818.240845,320
818.359436,320
818.478088,314
818.59668,317
818.715271,318
818.833923,314
818.952515,317
819.071106,323
819.189758,314
819.30835,336
819.426941,317
819.545532,317
819.664124,316
819.782715,299
819.901306,317
820.019897,331
820.138489,319
820.25708,321
820.375671,320
820.494202,311
820.612732,311
820.731384,332
820.849915,318
820.968506,315
821.087097,308
821.205627,320
821.324158,330
821.442749,323
821.561279,311
821.679871,331
821.798401,315
821.916931,325
822.035461,317
822.154053,302
822.272583,311
822.391174,320
822.509583,310
822.628174,315
822.746704,314
822.865234,317
822.983765,320
823.102295,306
823.220825,331
823.339294,313
823.457825,313
823.576355,322
823.694824,314
823.813354,319
823.931885,312
824.050354,313
824.168884,322
824.287354,319
824.405823,323
824.524353,324
824.642822,313
824.761353,303
824.879822,323
824.998291,320
825.116699,322
825.235291,322
825.353699,315
825.472168,339
825.590637,322
825.709106,310
825.827576,308
825.946045,320
826.064453,327
826.182983,308
826.301392,315
826.4198,310
826.53833,306
826.656738,312
826.775208,309
826.893677,329
827.012024,320
827.130493,316
827.248962,318
827.36731,308
827.485779,324
827.604248,314
827.722595,318
827.841064,321
827.959412,314
828.077942,319
828.196289,328
828.314636,316
828.433105,319
828.551514,310
828.669861,312
828.78833,323
828.906677,310
829.025085,323
829.143433,308
829.261841,326
829.38031,321
829.498657,312
829.617004,318
829.735413,322
829.85376,323
829.972107,312
830.090515,311
830.208862,316
830.327209,305
830.445557,319
830.563904,316
830.682312,319
830.800659,314
830.919006,315
831.037354,328
831.155701,324
831.274048,329
831.392395,321
831.51062,325
831.629028,301
831.747314,314
831.865662,319
831.984009,326
832.102356,321
832.220642,305
832.338928,318
832.457275,312
832.575623,322
832.693909,301
832.812134,325
832.930481,322
833.048828,314
833.167114,312
833.2854,311
833.403687,314
833.521973,320
833.640259,308
833.758545,323
833.876831,312
833.995056,319
834.113281,304
834.231628,327
834.349915,311
834.468201,316
834.586426,307
834.704651,314
834.822998,314
834.941162,321
835.059448,313
835.177673,317
835.295959,313
835.414246,327
835.53241,321
835.650635,322
835.768921,295
835.887146,311
836.005371,302
836.123596,322
836.241821,309
836.360046,308
836.478271,302
836.596497,321
836.714722,322
836.832886,312
836.95105,309
837.069336,328
837.1875,309
837.305725,312
837.423889,302
837.542053,313
837.660339,310
837.778503,318
837.896667,313
838.014832,319
838.132996,311
838.25116,335
838.369385,316
838.487488,318
838.605713,313
838.723877,308
838.84198,323
838.960205,313
839.078308,314
839.196472,325
839.314636,320
839.4328,320
839.550964,310
839.669067,321
839.787231,316
839.905396,321
840.023499,325
840.141602,316
840.259766,308
840.377869,325
840.495972,324
840.614136,315
840.732239,309
840.850342,323
840.968445,302
841.086548,314
841.204651,320
841.322754,315
841.440918,323
841.55896,327
841.677002,311
841.795166,317
841.913208,309
842.031311,314
842.149353,318
842.267456,315
842.385498,306
842.503601,319
842.621643,310
842.739746,303
842.857788,327
842.97583,319
843.093933,300
843.211975,323
843.330017,308
843.44812,306
843.566101,315
843.684204,319
843.802246,309
843.920227,308
844.038269,323
844.156311,332
844.274292,314
844.392395,317
844.510376,318
844.628357,311
844.74646,320
844.864441,310
844.982422,309
845.100403,302
845.218384,307
845.336426,338
845.454468,308
845.572449,308
845.69043,311
845.808411,315
845.926453,321
846.044373,310
846.162354,313
846.280396,321
846.398315,301
846.516296,313
846.634216,328
846.752197,324
846.870178,321
846.988098,302
847.106079,317
847.22406,306
847.34198,313
847.4599,324
847.577881,329
847.695801,322
847.813782,320
847.931641,307
848.049561,319
848.167603,311
848.285461,321
848.403381,315
848.521362,329
848.639221,327
848.75708,325
848.875,315
848.99292,321
849.110901,316
849.22876,307
849.34668,318
849.464539,303
849.582458,313
849.700317,321
849.818176,319
849.936096,307
850.053955,327
850.171875,318
850.289673,330
850.407593,325
850.525452,324
850.643311,323
850.761169,315
850.878967,309
850.996887,310
851.114746,312
851.232544,315
851.350403,312
851.468262,310
851.58606,304
851.703979,316
851.821777,318
851.939636,321
852.057434,328
852.175232,324
852.293091,320
852.410889,317
852.528687,308
852.646545,335
852.764343,310
852.88208,308
852.999939,313
853.117676,321
853.235535,324
853.353271,321
853.471069,295
853.588928,319
853.706604,308
853.824402,307
853.9422,319
854.059998,314
854.177734,315
854.295532,331
854.413269,311
854.531006,308
854.648804,311
854.766541,328
854.884277,317
855.002014,320
855.119751,313
855.237549,321
855.355225,310
855.473022,320
855.590698,324
855.708435,314
855.826172,311
855.943848,318
856.061646,313
856.179321,326
856.296997,318
856.414795,323
856.53241,299
856.650085,311
856.767822,320
856.885559,313
857.003174,300
857.120911,325
857.238586,317
857.356201,319
857.473938,322
857.591614,320
857.709351,311
857.826965,312
857.944641,312
858.062317,325
858.179993,313
858.297668,326
858.415283,303
858.532959,327
858.650574,312
858.768188,309
858.885803,324
859.003479,312
859.121094,311
859.23877,323
859.356384,314
859.473999,317
859.591675,317
859.709229,328
859.826843,324
859.944458,320
860.062012,314
860.179626,316
860.297302,323
860.414856,327
860.532471,314
860.650024,312
860.767639,311
860.885193,325
861.002808,318
861.120361,325
861.237976,322
861.35553,317
861.473022,318
861.590698,312
861.708191,329
861.825745,319
861.943298,317
862.060852,317
862.178406,310
862.295959,317
862.413513,316
862.531006,318
862.64856,311
862.766113,322
862.883667,314
863.00116,307
863.118713,323
863.236206,314
863.353699,318
863.471252,300
863.588745,301
863.706177,309
863.82373,324
863.941162,320
864.058716,305
864.176208,310
864.29364,315
864.411194,329
864.528687,309
864.646118,308
864.763611,312
864.881042,312
864.998535,314
865.116028,324
865.233459,321
865.350891,313
865.468384,316
865.585754,315
865.703308,322
865.820679,329
865.938171,323
866.055542,318
866.173035,304
866.290466,322
866.407837,305
866.52533,316
866.6427,315
866.760071,326
866.877563,311
866.994934,314
867.112305,309
867.229736,325
867.347107,314
867.464539,331
867.58197,299
867.699341,318
867.81665,300
867.934082,330
868.051453,312
868.168823,317
868.286194,321
868.403564,314
868.520935,331
868.638306,326
868.755676,301
868.872986,326
868.990295,310
869.107727,320
869.225037,316
869.342346,312
869.459717,325
869.577026,303
869.694336,311
869.811707,310
869.929016,318
870.046326,318
870.163635,314
870.280945,327
870.398254,295
870.515564,322
870.632812,308
870.750183,326
870.867432,315
870.984741,326
871.102051,315
871.219299,321
871.336609,327
871.453918,334
871.571106,323
871.688416,316
871.805664,305
871.922852,316
872.040222,314
872.157471,327
872.274719,312
872.391968,325
872.509155,314
872.626465,316
872.743652,317
872.860962,318
872.978149,314
873.095337,319
873.212646,312
873.329834,317
873.44696,314
873.564209,332
873.681396,313
873.798645,316
873.915894,314
874.03302,338
874.150208,311
874.267456,320
874.384583,299
874.501831,314
874.618958,313
874.736145,303
874.853333,304
874.970459,311
875.087646,316
875.204834,320
875.32196,315
875.439148,319
875.556274,313
875.673401,318
875.790527,313
875.907715,314
876.024841,324
876.141968,323
876.259094,318
876.376282,308
876.493347,314
876.610474,306
876.7276,320
876.844727,308
876.961853,313
877.078918,321
877.195984,312
877.313171,316
877.430237,315
877.547302,325
877.664368,310
877.781433,319
877.898499,313
878.015625,312
878.13269,311
878.249695,313
878.366821,316
878.483887,315
878.600952,308
878.717957,317
878.834961,310
878.952087,316
879.069092,326
879.186157,309
879.303162,312
879.420227,311
879.537231,320
879.654236,323
879.77124,325
879.888306,309
880.005249,310
880.122314,311
880.239319,318
880.356323,312
880.473328,315
880.590271,316
880.707275,314
880.824341,310
880.941284,314
881.058228,326
881.175232,308
881.292236,325
881.40918,312
881.526123,316
881.643066,309
881.760071,332
881.877014,317
881.993958,313
882.11084,310
882.227783,325
882.344727,309
882.46167,312
882.578613,314
882.695618,332
882.812439,317
882.929382,324
883.046326,315
883.163208,320
883.280151,310
883.397034,317
883.513916,313
883.630798,313
883.747742,308
883.864563,313
883.981506,315
884.098389,333
884.21521,315
884.332153,315
884.448975,313
884.565796,329
884.682678,303
884.7995,306
884.916443,311
885.033264,319
885.150085,310
885.266968,316
885.383789,308
885.500671,317
885.617493,313
885.734314,321
885.851196,317
885.967896,309
886.084717,317
886.201599,325
886.318359,309
886.435181,323
886.552002,305
886.668762,327
886.785645,314
886.902344,314
887.019165,320
887.135925,308
887.252747,318
887.369446,323
887.486267,323
887.603027,304
887.719788,312
887.836548,317
887.953247,306
888.070068,321
888.186829,308
888.303528,323
888.420288,314
888.536987,319
888.653687,312
888.770447,317
888.887146,315
889.003967,313
889.120667,306
889.237305,322
889.354065,314
889.470703,312
889.587463,317
889.704163,317
889.820862,315
889.937561,324
890.054199,315
890.170837,329
890.287598,319
890.404236,301
890.520874,311
890.637634,325
890.754211,330
890.87085,320
890.987549,316
891.104187,319
891.220886,308
891.337463,327
891.454102,309
891.57074,318
891.687378,335
891.804077,321
891.920654,297
892.037231,320
892.15387,309
892.270447,322
892.387085,311
892.503723,320
892.6203,308
892.736877,322
892.853516,324
892.970032,323
893.08667,310
893.203186,322
893.319763,313
893.43634,320
893.552917,310
893.669556,339
893.786011,317
893.902588,309
894.019165,317
894.135681,318
894.252197,319
894.368835,310
894.485291,306
894.601868,325
894.718384,313
894.8349,321
894.951355,311
895.067932,328
895.184448,327
895.300964,305
895.417419,306
895.533936,319
895.650452,327
895.766907,311
895.883423,314
895.999878,319
896.116333,318
896.232849,314
896.349304,327
896.465759,331
896.582214,318
896.698669,324
896.815125,319
896.931641,316
897.048035,309
897.164551,314
897.280884,308
897.397339,302
897.513794,321
897.630249,311
897.746582,309
897.863098,317
897.979431,312
898.095886,305
898.212341,314
898.328674,328
898.445129,324
898.561462,318
898.677795,304
898.794312,310
898.910645,311
899.026978,326
899.143433,324
899.259766,310
899.37616,308
899.492493,320
899.608765,311
899.725159,318
899.841553,318
899.957947,326
900.07428,322
900.190552,328
900.306946,317
900.423157,317
900.53949,302
900.655884,332
900.772156,315
900.888489,318
901.004822,306
901.121033,317
901.237366,310
901.353699,312
901.46991,319
901.586304,321
901.702515,310
901.818787,314
901.93512,313
902.051331,328
902.167603,314
902.283875,306
902.400085,319
902.516418,309
902.632629,308
902.74884,330
902.865112,300
902.981384,333
903.097595,310
903.213867,307
903.330017,315
903.446289,311
903.5625,322
903.67865,306
903.794922,319
903.911072,315
904.027344,305
904.143494,328
904.259705,302
904.375916,324
904.492065,313
904.608215,321
904.724426,310
904.840576,324
904.956726,314
905.072876,303
905.189087,309
905.305176,315
905.421387,320
905.537537,319
905.653687,317
905.769775,326
905.885925,311
906.002014,314
906.118164,311
906.234314,315
906.350403,312
906.466492,309
906.582642,312
906.69873,316
906.814758,313
906.930908,303
907.046936,315
907.163086,325
907.279175,306
907.395264,311
907.511353,316
907.62738,320
907.743408,321
907.859497,326
907.975525,322
908.091553,331
908.207703,317
908.32373,311
908.439758,316
908.555786,319
908.671814,321
908.787842,323
908.90387,311
909.019775,322
909.135864,319
909.251892,312
909.367859,318
909.483826,320
909.599854,311
909.715881,326
909.831848,306
909.947815,319
910.063782,320
910.179749,320
910.295776,314
910.411743,316
910.527649,321
910.643616,316
910.759583,320
910.875488,325
910.991455,315
911.107361,327
911.223267,315
911.339294,310
911.4552,310
911.571106,309
911.687073,312
911.802979,325
911.918823,322
912.034729,320
912.150635,313
912.266602,324
912.382446,321
912.498352,320
912.614197,330
912.730103,322
912.846008,316
