792.44574,306
792.56488,344
792.68396,415
792.80304,366
792.92218,326
793.041199,297
793.160339,309
793.279419,330
793.398499,328
793.517578,309
793.636658,313
793.755737,328
793.874817,337
793.993896,341
794.112976,323
794.232056,324
794.351074,314
794.470215,336
794.589233,331
794.708313,311
794.827393,311
794.946411,314
795.065552,324
795.18457,318
795.303589,331
795.422668,326
795.541687,316
795.660767,325
795.779846,318
795.898865,334
796.017883,321
796.136963,316
796.255981,333
796.375061,309
796.49408,338
796.613037,320
796.732117,330
796.851135,317
796.970154,318
797.089233,328
797.208191,326
797.327271,310
797.446228,313
797.565186,316
797.684265,323
797.803223,332
797.922241,309
798.04126,322
798.160278,318
798.279297,331
798.398315,329
798.517273,324
798.636292,325
798.75531,315
798.874268,308
798.993286,304
799.112244,311
799.231323,321
799.350281,330
799.469238,328
799.588257,319
799.707153,315
799.826111,322
799.945129,328
800.064087,321
800.183044,322
800.302063,321
800.421021,320
800.539978,305
800.658936,322
800.777893,306
800.896912,312
801.015747,322
801.134705,315
801.253723,323
801.37262,330
801.491638,311
801.610535,319
801.729492,330
801.84845,324
801.967407,333
802.086243,308
802.205261,324
802.324158,320
802.443115,332
802.562073,313
802.680969,323
802.799927,319
802.918762,307
803.037659,318
803.156677,325
803.275574,308
803.39447,319
803.513428,318
803.632263,315
803.751221,316
803.870117,317
803.989014,321
804.107971,322
804.226746,316
804.345642,319
804.4646,299
804.583496,339
804.702393,319
804.821228,320
804.940125,330
805.059021,328
805.177917,317
805.296814,310
805.415649,321
805.534546,342
805.653442,314
805.772278,306
805.891113,312
806.01001,318
806.128906,305
806.247742,317
806.366577,328
806.485413,310
806.604309,324
806.723145,337
806.84198,312
806.960876,331
807.079712,325
807.198486,338
807.317383,315
807.436218,324
807.554993,319
807.673889,327
807.792725,312
807.91156,322
808.030396,317
808.14917,315
808.268005,335
808.386841,326
808.505676,315
808.624451,316
808.743286,315
808.862122,310
808.980896,319
809.099731,313
809.218506,320
809.337341,324
809.456116,318
809.57489,331
809.693726,320
809.8125,310
809.931274,316
810.050049,337
810.168884,329
810.287659,320
810.406372,312
810.525269,322
810.643982,320
810.762756,324
810.881531,309
811.000305,319
811.11908,316
811.237854,315
811.356567,321
811.475403,330
811.594116,301
811.71283,324
811.831604,306
811.950378,339
812.069153,310
812.187927,310
812.30658,324
812.425415,329
812.544128,307
812.662781,326
812.781616,316
812.900269,310
813.019043,316
813.137756,323
813.256531,320
813.375244,318
813.493896,310
813.612671,316
813.731384,326
813.850037,312
813.96875,309
814.087524,316
814.206238,306
814.324951,331
814.443604,305
814.562256,319
814.68103,320
814.799683,306
814.918335,317
815.037109,328
815.155762,317
815.274475,323
815.393188,314
815.511841,325
815.630554,308
815.749146,317
815.867859,312
815.986572,316
816.105164,320
816.223877,322
816.342529,323
816.461182,317
816.579895,327
816.698486,308
816.817139,313
816.935791,316
817.054504,315
817.173096,328
817.291748,314
817.4104,318
817.529053,316
817.647644,337
817.766235,315
817.884949,326
818.00354,311
818.122192,320
818.240845,322
818.359436,310
818.478088,312
818.59668,318
818.715271,323
818.833923,319
818.952515,304
819.071106,316
819.189758,319
819.30835,319
819.426941,324
819.545532,315
819.664124,324
819.782715,329
819.901306,319
820.019897,317
820.138489,311
820.25708,326
820.375671,321
820.494202,322
820.612732,327
820.731384,319
820.849915,325
820.968506,315
821.087097,312
821.205627,317
821.324158,304
821.442749,324
821.561279,318
821.679871,309
821.798401,312
821.916931,314
822.035461,316
822.154053,313
822.272583,320
822.391174,314
822.509583,320
822.628174,326
822.746704,316
822.865234,314
822.983765,310
823.102295,300
823.220825,329
823.339294,311
823.457825,311
823.576355,312
823.694824,314
823.813354,312
823.931885,301
824.050354,314
824.168884,310
824.287354,324
824.405823,305
824.524353,315
824.642822,316
824.761353,321
824.879822,313
824.998291,331
825.116699,310
825.235291,314
825.353699,305
825.472168,305
825.590637,313
825.709106,320
825.827576,309
825.946045,320
826.064453,311
826.182983,323
826.301392,318
826.4198,311
826.53833,315
826.656738,320
826.775208,311
826.893677,315
827.012024,309
827.130493,322
827.248962,319
827.36731,307
827.485779,317
827.604248,307
827.722595,319
827.841064,314
827.959412,318
828.077942,310
828.196289,305
828.314636,322
828.433105,321
828.551514,311
828.669861,308
828.78833,305
828.906677,307
829.025085,319
829.143433,314
829.261841,323
829.38031,315
829.498657,321
829.617004,315
829.735413,329
829.85376,318
829.972107,325
830.090515,312
830.208862,315
830.327209,312
830.445557,302
830.563904,322
830.682312,319
830.800659,320
830.919006,314
831.037354,314
831.155701,317
831.274048,318
831.392395,319
831.51062,314
831.629028,316
831.747314,302
831.865662,314
831.984009,307
832.102356,320
832.220642,321
832.338928,326
832.457275,323
832.575623,327
832.693909,322
832.812134,317
832.930481,307
833.048828,317
833.167114,319
833.2854,331
833.403687,314
833.521973,311
833.640259,317
833.758545,322
833.876831,323
833.995056,321
834.113281,301
834.231628,323
834.349915,306
834.468201,313
834.586426,301
834.704651,310
834.822998,312
834.941162,326
835.059448,313
835.177673,318
835.295959,316
835.414246,317
835.53241,317
835.650635,325
835.768921,314
835.887146,323
836.005371,309
836.123596,319
836.241821,311
836.360046,308
836.478271,318
836.596497,317
836.714722,306
836.832886,316
836.95105,305
837.069336,328
837.1875,319
837.305725,327
837.423889,310
837.542053,325
837.660339,302
837.778503,308
837.896667,307
838.014832,315
838.132996,312
838.25116,305
838.369385,323
838.487488,324
838.605713,317
838.723877,315
838.84198,308
838.960205,327
839.078308,320
839.196472,313
839.314636,316
839.4328,308
839.550964,319
839.669067,318
839.787231,322
839.905396,325
840.023499,313
840.141602,309
840.259766,316
840.377869,313
840.495972,321
840.614136,317
840.732239,313
840.850342,319
840.968445,321
841.086548,318
841.204651,315
841.322754,311
841.440918,306
841.55896,318
841.677002,313
841.795166,314
841.913208,308
842.031311,315
842.149353,308
842.267456,320
842.385498,304
842.503601,318
842.621643,327
842.739746,313
842.857788,322
842.97583,310
843.093933,321
843.211975,314
843.330017,312
843.44812,313
843.566101,307
843.684204,319
843.802246,321
843.920227,330
844.038269,305
844.156311,317
844.274292,311
844.392395,316
844.510376,322
844.628357,321
844.74646,328
844.864441,323
844.982422,312
845.100403,305
845.218384,311
845.336426,322
845.454468,307
845.572449,313
845.69043,317
845.808411,308
845.926453,311
846.044373,308
846.162354,330
846.280396,318
846.398315,302
846.516296,317
846.634216,301
846.752197,311
846.870178,310
846.988098,324
847.106079,317
847.22406,328
847.34198,321
847.4599,324
847.577881,311
847.695801,311
847.813782,316
847.931641,318
848.049561,311
848.167603,317
848.285461,319
848.403381,315
848.521362,311
848.639221,320
848.75708,296
848.875,315
848.99292,311
849.110901,317
849.22876,303
849.34668,315
849.464539,313
849.582458,321
849.700317,301
849.818176,319
849.936096,321
850.053955,328
850.171875,296
850.289673,309
850.407593,306
850.525452,323
850.643311,308
850.761169,321
850.878967,315
850.996887,333
851.114746,312
851.232544,305
851.350403,308
851.468262,313
851.58606,313
851.703979,312
851.821777,321
851.939636,323
852.057434,309
852.175232,309
852.293091,311
852.410889,315
852.528687,306
852.646545,326
852.764343,317
852.88208,319
852.999939,305
853.117676,319
853.235535,319
853.353271,310
853.471069,311
853.588928,313
853.706604,301
853.824402,310
853.9422,318
854.059998,320
854.177734,305
854.295532,303
854.413269,296
854.531006,309
854.648804,315
854.766541,320
854.884277,314
855.002014,309
855.119751,319
855.237549,317
855.355225,322
855.473022,312
855.590698,328
855.708435,309
855.826172,315
855.943848,317
856.061646,309
856.179321,319
856.296997,322
856.414795,328
856.53241,302
856.650085,330
856.767822,300
856.885559,328
857.003174,333
857.120911,319
857.238586,318
857.356201,326
857.473938,308
857.591614,319
857.709351,313
857.826965,306
857.944641,305
858.062317,314
858.179993,323
858.297668,318
858.415283,313
858.532959,311
858.650574,322
858.768188,313
858.885803,305
859.003479,328
859.121094,312
859.23877,328
859.356384,304
859.473999,309
859.591675,327
859.709229,319
859.826843,309
859.944458,318
860.062012,305
860.179626,312
860.297302,305
860.414856,318
860.532471,317
860.650024,313
860.767639,310
860.885193,318
861.002808,325
861.120361,320
861.237976,311
861.35553,328
861.473022,328
861.590698,317
861.708191,328
861.825745,318
861.943298,299
862.060852,326
862.178406,314
862.295959,322
862.413513,305
862.531006,324
862.64856,316
862.766113,330
862.883667,327
863.00116,325
863.118713,309
863.236206,315
863.353699,313
863.471252,322
863.588745,311
863.706177,308
863.82373,333
863.941162,326
864.058716,301
864.176208,314
864.29364,314
864.411194,301
864.528687,310
864.646118,321
864.763611,289
864.881042,316
864.998535,324
865.116028,305
865.233459,318
865.350891,315
865.468384,317
865.585754,300
865.703308,306
865.820679,318
865.938171,301
866.055542,307
866.173035,321
866.290466,312
866.407837,321
866.52533,318
866.6427,311
866.760071,302
866.877563,310
866.994934,319
867.112305,311
867.229736,313
867.347107,310
867.464539,333
867.58197,314
867.699341,313
867.81665,313
867.934082,305
868.051453,312
868.168823,315
868.286194,324
868.403564,317
868.520935,307
868.638306,313
868.755676,313
868.872986,315
868.990295,318
869.107727,312
869.225037,317
869.342346,330
869.459717,309
869.577026,328
869.694336,311
869.811707,306
869.929016,314
870.046326,310
870.163635,306
870.280945,313
870.398254,327
870.515564,323
870.632812,306
870.750183,323
870.867432,307
870.984741,335
871.102051,320
871.219299,324
871.336609,314
871.453918,314
871.571106,303
871.688416,321
871.805664,319
871.922852,307
872.040222,329
872.157471,315
872.274719,318
872.391968,313
872.509155,317
872.626465,317
872.743652,311
872.860962,322
872.978149,311
873.095337,317
873.212646,322
873.329834,320
873.44696,320
873.564209,310
873.681396,317
873.798645,312
873.915894,327
874.03302,316
874.150208,311
874.267456,311
874.384583,314
874.501831,317
874.618958,321
874.736145,319
874.853333,319
874.970459,316
875.087646,313
875.204834,309
875.32196,311
875.439148,324
875.556274,307
875.673401,317
875.790527,323
875.907715,309
876.024841,311
876.141968,319
876.259094,325
876.376282,319
876.493347,313
876.610474,323
876.7276,313
876.844727,325
876.961853,315
877.078918,319
877.195984,315
877.313171,319
877.430237,316
877.547302,321
877.664368,313
877.781433,318
877.898499,317
878.015625,314
878.13269,311
878.249695,321
878.366821,318
878.483887,320
878.600952,307
878.717957,316
878.834961,307
878.952087,317
879.069092,316
879.186157,322
879.303162,309
879.420227,307
879.537231,309
879.654236,309
879.77124,320
879.888306,309
880.005249,329
880.122314,313
880.239319,308
880.356323,315
880.473328,321
880.590271,322
880.707275,319
880.824341,324
880.941284,320
881.058228,315
881.175232,317
881.292236,319
881.40918,309
881.526123,331
881.643066,313
881.760071,314
881.877014,319
881.993958,326
882.11084,326
882.227783,325
882.344727,306
882.46167,320
882.578613,313
882.695618,318
882.812439,307
882.929382,314
883.046326,314
883.163208,317
883.280151,323
883.397034,327
883.513916,309
883.630798,313
883.747742,305
883.864563,327
883.981506,321
884.098389,315
884.21521,307
884.332153,306
884.448975,325
884.565796,320
884.682678,308
884.7995,316
884.916443,302
885.033264,323
885.150085,323
885.266968,312
885.383789,323
885.500671,318
885.617493,326
885.734314,316
885.851196,323
885.967896,322
886.084717,316
886.201599,306
886.318359,293
886.435181,317
886.552002,311
886.668762,318
886.785645,319
886.902344,317
887.019165,305
887.135925,314
887.252747,305
887.369446,313
887.486267,325
887.603027,313
887.719788,314
887.836548,315
887.953247,309
888.070068,317
888.186829,320
888.303528,314
888.420288,307
888.536987,320
888.653687,317
888.770447,314
888.887146,311
889.003967,316
889.120667,320
889.237305,307
889.354065,319
889.470703,313
889.587463,316
889.704163,320
889.820862,315
889.937561,307
890.054199,327
890.170837,307
890.287598,304
890.404236,317
890.520874,314
890.637634,327
890.754211,309
890.87085,307
890.987549,319
891.104187,311
891.220886,323
891.337463,317
891.454102,318
891.57074,316
891.687378,307
891.804077,330
891.920654,314
892.037231,317
892.15387,318
892.270447,334
892.387085,300
892.503723,316
892.6203,316
892.736877,329
892.853516,327
892.970032,329
893.08667,314
893.203186,307
893.319763,309
893.43634,317
893.552917,318
893.669556,311
893.786011,329
893.902588,316
894.019165,302
894.135681,323
894.252197,312
894.368835,323
894.485291,314
894.601868,332
894.718384,318
894.8349,313
894.951355,309
895.067932,330
895.184448,292
895.300964,305
895.417419,311
895.533936,321
895.650452,318
895.766907,309
895.883423,298
895.999878,329
896.116333,317
896.232849,321
896.349304,324
896.465759,310
896.582214,315
896.698669,324
896.815125,320
896.931641,309
897.048035,300
897.164551,313
897.280884,328
897.397339,313
897.513794,321
897.630249,331
897.746582,311
897.863098,317
897.979431,318
898.095886,320
898.212341,318
898.328674,318
898.445129,328
898.561462,320
898.677795,307
898.794312,326
898.910645,317
899.026978,325
899.143433,321
899.259766,328
899.37616,306
899.492493,320
899.608765,329
899.725159,327
899.841553,315
899.957947,316
900.07428,310
900.190552,317
900.306946,320
900.423157,315
900.53949,311
900.655884,318
900.772156,306
900.888489,314
901.004822,315
901.121033,319
901.237366,322
901.353699,314
901.46991,324
901.586304,318
901.702515,317
901.818787,321
901.93512,316
902.051331,326
902.167603,306
902.283875,319
902.400085,317
902.516418,328
902.632629,304
902.74884,317
902.865112,323
902.981384,317
903.097595,303
903.213867,316
903.330017,318
903.446289,319
903.5625,317
903.67865,315
903.794922,310
903.911072,312
904.027344,322
904.143494,328
904.259705,329
904.375916,311
904.492065,328
904.608215,330
904.724426,334
904.840576,324
904.956726,315
905.072876,320
905.189087,316
905.305176,310
905.421387,324
905.537537,314
905.653687,317
905.769775,325
905.885925,312
906.002014,327
906.118164,301
906.234314,324
906.350403,325
906.466492,319
906.582642,322
906.69873,324
906.814758,317
906.930908,314
907.046936,314
907.163086,317
907.279175,314
907.395264,305
907.511353,316
907.62738,312
907.743408,311
907.859497,311
907.975525,301
908.091553,307
908.207703,302
908.32373,319
908.439758,315
908.555786,309
908.671814,311
908.787842,328
908.90387,316
909.019775,328
909.135864,302
909.251892,321
909.367859,302
909.483826,319
909.599854,311
909.715881,312
909.831848,319
909.947815,326
910.063782,321
910.179749,320
910.295776,314
910.411743,324
910.527649,300
910.643616,340
910.759583,313
910.875488,325
910.991455,314
911.107361,326
911.223267,318
911.339294,329
911.4552,310
911.571106,322
911.687073,321
911.802979,322
911.918823,316
912.034729,323
912.150635,321
912.266602,307
912.382446,318
912.498352,314
912.614197,307
912.730103,320
912.846008,310
792.44574,296
792.56488,337
792.68396,395
792.80304,369
792.92218,317
793.041199,305
793.160339,304
793.279419,324
793.398499,328
793.517578,303
793.636658,318
793.755737,317
793.874817,336
793.993896,326
794.112976,336
794.232056,316
794.351074,316
794.470215,319
794.589233,323
794.708313,318
794.827393,322
794.946411,322
795.065552,339
795.18457,321
795.303589,331
795.422668,304
795.541687,320
795.660767,320
795.779846,315
795.898865,331
796.017883,320
796.136963,318
796.255981,328
796.375061,320
796.49408,326
796.613037,331
796.732117,310
796.851135,320
796.970154,330
797.089233,317
797.208191,325
797.327271,321
797.446228,316
797.565186,328
797.684265,322
797.803223,315
797.922241,318
798.04126,318
798.160278,318
798.279297,325
798.398315,318
798.517273,311
798.636292,343
798.75531,330
798.874268,300
798.993286,321
799.112244,310
799.231323,322
799.350281,324
799.469238,321
799.588257,338
799.707153,320
799.826111,318
799.945129,318
800.064087,320
800.183044,320
800.302063,319
800.421021,310
800.539978,331
800.658936,318
800.777893,318
800.896912,317
801.015747,315
801.134705,321
801.253723,310
801.37262,326
801.491638,317
801.610535,312
801.729492,321
801.84845,322
801.967407,312
802.086243,306
802.205261,322
802.324158,327
802.443115,321
802.562073,325
802.680969,323
802.799927,329
802.918762,321
803.037659,318
803.156677,310
803.275574,319
803.39447,333
803.513428,316
803.632263,324
803.751221,317
803.870117,322
803.989014,325
804.107971,328
804.226746,328
804.345642,308
804.4646,330
804.583496,312
804.702393,313
804.821228,326
804.940125,322
805.059021,329
805.177917,318
805.296814,311
805.415649,309
805.534546,332
805.653442,315
805.772278,325
805.891113,339
806.01001,313
806.128906,327
806.247742,326
806.366577,319
806.485413,316
806.604309,317
806.723145,325
806.84198,312
806.960876,326
807.079712,327
807.198486,312
807.317383,307
807.436218,312
807.554993,315
807.673889,323
807.792725,316
807.91156,330
808.030396,321
808.14917,324
808.268005,318
808.386841,313
808.505676,311
808.624451,312
808.743286,325
808.862122,314
808.980896,312
809.099731,316
809.218506,318
809.337341,314
809.456116,317
809.57489,317
809.693726,325
809.8125,324
809.931274,328
810.050049,314
810.168884,308
810.287659,314
810.406372,322
810.525269,326
810.643982,320
810.762756,324
810.881531,309
811.000305,320
811.11908,309
811.237854,317
811.356567,321
811.475403,319
811.594116,325
811.71283,324
811.831604,323
811.950378,317
812.069153,317
812.187927,314
812.30658,322
812.425415,309
812.544128,327
812.662781,315
812.781616,328
812.900269,305
813.019043,316
813.137756,318
813.256531,325
813.375244,320
813.493896,307
813.612671,333
813.731384,316
813.850037,320
813.96875,308
814.087524,319
814.206238,320
814.324951,321
814.443604,319
814.562256,334
814.68103,314
814.799683,321
814.918335,324
815.037109,309
815.155762,315
815.274475,328
815.393188,305
815.511841,316
815.630554,314
815.749146,328
815.867859,307
815.986572,320
816.105164,315
816.223877,316
816.342529,311
816.461182,324
816.579895,316
816.698486,321
816.817139,317
816.935791,319
817.054504,325
817.173096,312
817.291748,318
817.4104,318
817.529053,303
817.647644,311
817.766235,320
817.884949,321
818.00354,323
818.122192,331
818.240845,322
818.359436,321
818.478088,329
818.59668,316
818.715271,316
818.833923,313
818.952515,319
819.071106,325
819.189758,318
819.30835,316
819.426941,320
819.545532,327
819.664124,316
819.782715,321
819.901306,330
820.019897,318
820.138489,316
820.25708,315
820.375671,328
820.494202,316
820.612732,322
820.731384,318
820.849915,331
820.968506,312
821.087097,318
821.205627,326
821.324158,334
821.442749,310
821.561279,324
821.679871,318
821.798401,307
821.916931,315
822.035461,318
822.154053,315
822.272583,317
822.391174,317
822.509583,329
822.628174,313
822.746704,323
822.865234,316
822.983765,325
823.102295,312
823.220825,323
823.339294,333
823.457825,311
823.576355,326
823.694824,325
823.813354,318
823.931885,315
824.050354,320
824.168884,320
824.287354,328
824.405823,315
824.524353,331
824.642822,306
824.761353,320
824.879822,324
824.998291,325
825.116699,326
825.235291,325
825.353699,318
825.472168,314
825.590637,314
825.709106,315
825.827576,329
825.946045,314
826.064453,317
826.182983,312
826.301392,326
826.4198,306
826.53833,313
826.656738,314
826.775208,316
826.893677,316
827.012024,320
827.130493,325
827.248962,317
827.36731,308
827.485779,309
827.604248,313
827.722595,314
827.841064,325
827.959412,329
828.077942,307
828.196289,327
828.314636,303
828.433105,317
828.551514,299
828.669861,325
828.78833,315
828.906677,318
829.025085,316
829.143433,321
829.261841,304
829.38031,321
829.498657,309
829.617004,326
829.735413,323
829.85376,323
829.972107,312
830.090515,309
830.208862,327
830.327209,317
830.445557,310
830.563904,314
830.682312,310
830.800659,314
830.919006,314
831.037354,306
831.155701,326
831.274048,317
831.392395,325
831.51062,319
831.629028,311
831.747314,318
831.865662,306
831.984009,328
832.102356,314
832.220642,320
832.338928,316
832.457275,316
832.575623,311
832.693909,315
832.812134,309
832.930481,323
833.048828,309
833.167114,314
833.2854,325
833.403687,308
833.521973,316
833.640259,309
833.758545,316
833.876831,300
833.995056,311
834.113281,313
834.231628,309
834.349915,324
834.468201,337
834.586426,303
834.704651,309
834.822998,311
834.941162,307
835.059448,324
835.177673,318
835.295959,319
835.414246,326
835.53241,312
835.650635,316
835.768921,312
835.887146,321
836.005371,318
836.123596,330
836.241821,320
836.360046,313
836.478271,321
836.596497,303
836.714722,325
836.832886,320
836.95105,313
837.069336,309
837.1875,312
837.305725,317
837.423889,320
837.542053,320
837.660339,327
837.778503,322
837.896667,322
838.014832,307
838.132996,317
838.25116,316
838.369385,330
838.487488,323
838.605713,328
838.723877,305
838.84198,327
838.960205,311
839.078308,324
839.196472,316
839.314636,323
839.4328,316
839.550964,320
839.669067,321
839.787231,313
839.905396,321
840.023499,317
840.141602,311
840.259766,318
840.377869,322
840.495972,301
840.614136,313
840.732239,308
840.850342,323
840.968445,313
841.086548,319
841.204651,316
841.322754,305
841.440918,316
841.55896,320
841.677002,322
841.795166,313
841.913208,312
842.031311,326
842.149353,316
842.267456,314
842.385498,318
842.503601,320
842.621643,310
842.739746,318
842.857788,311
842.97583,309
843.093933,325
843.211975,302
843.330017,321
843.44812,313
843.566101,335
843.684204,303
843.802246,310
843.920227,312
844.038269,327
844.156311,304
844.274292,304
844.392395,304
844.510376,315
844.628357,298
844.74646,310
844.864441,318
844.982422,322
845.100403,303
845.218384,315
845.336426,316
845.454468,318
845.572449,310
845.69043,317
845.808411,313
845.926453,312
846.044373,313
846.162354,319
846.280396,305
846.398315,305
846.516296,312
846.634216,326
846.752197,310
846.870178,323
846.988098,307
847.106079,305
847.22406,325
847.34198,320
847.4599,330
847.577881,308
847.695801,322
847.813782,322
847.931641,312
848.049561,329
848.167603,324
848.285461,312
848.403381,298
848.521362,323
848.639221,316
848.75708,315
848.875,315
848.99292,324
849.110901,328
849.22876,300
849.34668,309
849.464539,320
849.582458,313
849.700317,309
849.818176,319
849.936096,315
850.053955,316
850.171875,314
850.289673,313
850.407593,317
850.525452,317
850.643311,314
850.761169,319
850.878967,312
850.996887,315
851.114746,327
851.232544,314
851.350403,311
851.468262,322
851.58606,330
851.703979,315
851.821777,314
851.939636,321
852.057434,305
852.175232,316
852.293091,304
852.410889,315
852.528687,322
852.646545,320
852.764343,314
852.88208,320
852.999939,319
853.117676,328
853.235535,325
853.353271,314
853.471069,306
853.588928,315
853.706604,319
853.824402,316
853.9422,328
854.059998,304
854.177734,318
854.295532,300
854.413269,319
854.531006,305
854.648804,315
854.766541,325
854.884277,317
855.002014,315
855.119751,319
855.237549,318
855.355225,318
855.473022,309
855.590698,316
855.708435,320
855.826172,315
855.943848,306
856.061646,308
856.179321,319
856.296997,317
856.414795,316
856.53241,319
856.650085,313
856.767822,325
856.885559,328
857.003174,313
857.120911,318
857.238586,328
857.356201,313
857.473938,308
857.591614,310
857.709351,308
857.826965,314
857.944641,315
858.062317,324
858.179993,321
858.297668,330
858.415283,320
858.532959,325
858.650574,325
858.768188,319
858.885803,314
859.003479,320
859.121094,316
859.23877,306
859.356384,311
859.473999,306
859.591675,317
859.709229,307
859.826843,314
859.944458,309
860.062012,322
860.179626,313
860.297302,310
860.414856,320
860.532471,300
860.650024,316
860.767639,306
860.885193,323
861.002808,309
861.120361,306
861.237976,334
861.35553,297
861.473022,316
861.590698,313
861.708191,311
861.825745,315
861.943298,319
862.060852,315
862.178406,326
862.295959,310
862.413513,318
862.531006,311
862.64856,324
862.766113,312
862.883667,309
863.00116,306
863.118713,316
863.236206,325
863.353699,316
863.471252,324
863.588745,312
863.706177,314
863.82373,325
863.941162,325
864.058716,319
864.176208,311
864.29364,316
864.411194,325
864.528687,327
864.646118,319
864.763611,325
864.881042,322
864.998535,328
865.116028,319
865.233459,307
865.350891,319
865.468384,314
865.585754,313
865.703308,308
865.820679,311
865.938171,317
866.055542,301
866.173035,310
866.290466,313
866.407837,307
866.52533,312
866.6427,317
866.760071,317
866.877563,325
866.994934,303
867.112305,312
867.229736,305
867.347107,321
867.464539,320
867.58197,307
867.699341,319
867.81665,312
867.934082,313
868.051453,306
868.168823,307
868.286194,315
868.403564,311
868.520935,324
868.638306,313
868.755676,303
868.872986,309
868.990295,306
869.107727,322
869.225037,319
869.342346,322
869.459717,319
869.577026,314
869.694336,326
869.811707,318
869.929016,308
870.046326,317
870.163635,313
870.280945,305
870.398254,326
870.515564,321
870.632812,312
870.750183,314
870.867432,321
870.984741,318
871.102051,317
871.219299,314
871.336609,313
871.453918,321
871.571106,321
871.688416,315
871.805664,312
871.922852,306
872.040222,323
872.157471,330
872.274719,334
872.391968,318
872.509155,327
872.626465,318
872.743652,314
872.860962,301
872.978149,316
873.095337,310
873.212646,325
873.329834,318
873.44696,320
873.564209,309
873.681396,325
873.798645,326
873.915894,310
874.03302,298
874.150208,309
874.267456,324
874.384583,311
874.501831,321
874.618958,313
874.736145,318
874.853333,310
874.970459,312
875.087646,327
875.204834,307
875.32196,319
875.439148,312
875.556274,323
875.673401,306
875.790527,322
875.907715,322
876.024841,322
876.141968,318
876.259094,319
876.376282,310
876.493347,315
876.610474,332
876.7276,324
876.844727,318
876.961853,310
877.078918,319
877.195984,312
877.313171,324
877.430237,316
877.547302,327
877.664368,310
877.781433,320
877.898499,331
878.015625,311
878.13269,320
878.249695,309
878.366821,319
878.483887,306
878.600952,322
878.717957,324
878.834961,307
878.952087,292
879.069092,312
879.186157,326
879.303162,312
879.420227,313
879.537231,320
879.654236,323
879.77124,320
879.888306,323
880.005249,327
880.122314,319
880.239319,323
880.356323,314
880.473328,310
880.590271,324
880.707275,323
880.824341,327
880.941284,318
881.058228,318
881.175232,331
881.292236,304
881.40918,313
881.526123,315
881.643066,325
881.760071,332
881.877014,306
881.993958,309
882.11084,325
882.227783,316
882.344727,316
882.46167,326
882.578613,331
882.695618,306
882.812439,327
882.929382,314
883.046326,322
883.163208,316
883.280151,316
883.397034,316
883.513916,318
883.630798,298
883.747742,312
883.864563,308
883.981506,320
884.098389,315
884.21521,305
884.332153,335
884.448975,312
884.565796,304
884.682678,303
884.7995,317
884.916443,321
885.033264,311
885.150085,313
885.266968,317
885.383789,321
885.500671,309
885.617493,311
885.734314,319
885.851196,317
885.967896,321
886.084717,319
886.201599,314
886.318359,310
886.435181,306
886.552002,312
886.668762,324
886.785645,309
886.902344,323
887.019165,310
887.135925,318
887.252747,331
887.369446,315
887.486267,303
887.603027,317
887.719788,306
887.836548,298
887.953247,315
888.070068,314
888.186829,327
888.303528,314
888.420288,316
888.536987,319
888.653687,312
888.770447,322
888.887146,324
889.003967,314
889.120667,319
889.237305,309
889.354065,324
889.470703,318
889.587463,314
889.704163,318
889.820862,320
889.937561,306
890.054199,318
890.170837,323
890.287598,313
890.404236,318
890.520874,320
890.637634,313
890.754211,324
890.87085,310
890.987549,326
891.104187,324
891.220886,315
891.337463,318
891.454102,311
891.57074,314
891.687378,312
891.804077,305
891.920654,342
892.037231,320
892.15387,318
892.270447,332
892.387085,323
892.503723,307
892.6203,330
892.736877,309
892.853516,311
892.970032,317
893.08667,326
893.203186,318
893.319763,316
893.43634,319
893.552917,326
893.669556,324
893.786011,313
893.902588,316
894.019165,314
894.135681,306
894.252197,334
894.368835,319
894.485291,314
894.601868,314
894.718384,305
894.8349,309
894.951355,321
895.067932,330
895.184448,310
895.300964,310
895.417419,324
895.533936,306
895.650452,317
895.766907,314
895.883423,312
895.999878,307
896.116333,308
896.232849,308
896.349304,319
896.465759,324
896.582214,330
896.698669,328
896.815125,304
896.931641,311
897.048035,308
897.164551,310
897.280884,322
897.397339,310
897.513794,313
897.630249,317
897.746582,317
897.863098,320
897.979431,323
898.095886,307
898.212341,317
898.328674,319
898.445129,316
898.561462,306
898.677795,321
898.794312,302
898.910645,330
899.026978,315
899.143433,311
899.259766,318
899.37616,309
899.492493,314
899.608765,317
899.725159,321
899.841553,320
899.957947,307
900.07428,315
900.190552,306
900.306946,320
900.423157,313
900.53949,315
900.655884,325
900.772156,317
900.888489,315
901.004822,322
901.121033,313
901.237366,319
901.353699,309
901.46991,320
901.586304,314
901.702515,316
901.818787,318
901.93512,314
902.051331,322
902.167603,324
902.283875,318
902.400085,325
902.516418,303
902.632629,328
902.74884,327
902.865112,318
902.981384,307
903.097595,324
903.213867,320
903.330017,319
903.446289,308
903.5625,323
903.67865,323
903.794922,323
903.911072,310
904.027344,317
904.143494,308
904.259705,321
904.375916,332
904.492065,320
904.608215,313
904.724426,305
904.840576,316
904.956726,306
905.072876,302
905.189087,320
905.305176,308
905.421387,312
905.537537,335
905.653687,322
905.769775,324
905.885925,317
906.002014,318
906.118164,310
906.234314,325
906.350403,315
906.466492,312
906.582642,316
906.69873,319
906.814758,331
906.930908,326
907.046936,320
907.163086,306
907.279175,320
907.395264,305
907.511353,311
907.62738,322
907.743408,317
907.859497,313
907.975525,325
908.091553,308
908.207703,327
908.32373,303
908.439758,320
908.555786,336
908.671814,316
908.787842,308
908.90387,328
909.019775,308
909.135864,325
909.251892,308
909.367859,334
909.483826,313
909.599854,327
909.715881,312
909.831848,315
909.947815,313
910.063782,318
910.179749,322
910.295776,316
910.411743,314
910.527649,322
910.643616,324
910.759583,321
910.875488,324
910.991455,304
911.107361,314
911.223267,318
911.339294,316
911.4552,323
911.571106,299
911.687073,321
911.802979,321
911.918823,325
912.034729,310
912.150635,311
912.266602,327
912.382446,307
912.498352,305
912.614197,302
912.730103,322
912.846008,326
792.44574,303
792.56488,349
792.68396,383
792.80304,369
792.92218,323
793.041199,317
793.160339,316
793.279419,327
793.398499,322
793.517578,309
793.636658,305
793.755737,319
793.874817,341
793.993896,331
794.112976,334
794.232056,315
794.351074,314
794.470215,324
794.589233,320
794.708313,318
794.827393,320
794.946411,324
795.065552,323
795.18457,316
795.303589,318
795.422668,327
795.541687,324
795.660767,326
795.779846,312
795.898865,326
796.017883,331
796.136963,322
796.255981,329
796.375061,317
796.49408,312
796.613037,329
796.732117,323
796.851135,330
796.970154,313
797.089233,314
797.208191,319
797.327271,332
797.446228,318
797.565186,308
797.684265,324
797.803223,318
797.922241,330
798.04126,326
798.160278,326
798.279297,314
798.398315,326
798.517273,306
798.636292,323
798.75531,320
798.874268,315
798.993286,330
799.112244,322
799.231323,327
799.350281,333
799.469238,325
799.588257,319
799.707153,332
799.826111,335
799.945129,321
800.064087,333
800.183044,321
800.302063,336
800.421021,314
800.539978,327
800.658936,303
800.777893,328
800.896912,308
801.015747,321
801.134705,311
801.253723,323
801.37262,316
801.491638,324
801.610535,310
801.729492,330
801.84845,315
801.967407,317
802.086243,315
802.205261,329
802.324158,317
802.443115,328
802.562073,313
802.680969,339
802.799927,315
802.918762,320
803.037659,311
803.156677,331
803.275574,308
803.39447,315
803.513428,326
803.632263,320
803.751221,326
803.870117,332
803.989014,330
804.107971,313
804.226746,320
804.345642,310
804.4646,324
804.583496,317
804.702393,311
804.821228,331
804.940125,306
805.059021,310
805.177917,327
805.296814,326
805.415649,313
805.534546,333
805.653442,311
805.772278,329
805.891113,318
806.01001,306
806.128906,320
806.247742,326
806.366577,319
806.485413,317
806.604309,318
806.723145,312
806.84198,320
806.960876,323
807.079712,319
807.198486,314
807.317383,329
807.436218,325
807.554993,309
807.673889,314
807.792725,311
807.91156,325
808.030396,328
808.14917,320
808.268005,319
808.386841,327
808.505676,317
808.624451,321
808.743286,317
808.862122,321
808.980896,314
809.099731,322
809.218506,332
809.337341,324
809.456116,332
809.57489,317
809.693726,314
809.8125,324
809.931274,320
810.050049,319
810.168884,311
810.287659,332
810.406372,326
810.525269,324
810.643982,306
810.762756,327
810.881531,335
811.000305,320
811.11908,317
811.237854,318
811.356567,310
811.475403,321
811.594116,320
811.71283,310
811.831604,319
811.950378,332
812.069153,313
812.187927,322
812.30658,327
812.425415,328
812.544128,316
812.662781,323
812.781616,331
812.900269,326
813.019043,312
813.137756,321
813.256531,316
813.375244,321
813.493896,323
813.612671,322
813.731384,319
813.850037,313
813.96875,335
814.087524,305
814.206238,315
814.324951,322
814.443604,315
814.562256,328
814.68103,329
814.799683,321
814.918335,320
815.037109,318
815.155762,316
815.274475,319
815.393188,323
815.511841,313
815.630554,321
815.749146,336
815.867859,315
815.986572,317
816.105164,323
816.223877,334
816.342529,314
816.461182,318
816.579895,321
816.698486,318
816.817139,324
816.935791,316
817.054504,323
817.173096,333
817.291748,323
817.4104,314
817.529053,329
817.647644,319
817.766235,319
817.884949,325
818.00354,329
818.122192,303
818.240845,322
818.359436,323
818.478088,310
818.59668,315
818.715271,306
818.833923,332
818.952515,313
819.071106,322
819.189758,328
819.30835,327
819.426941,315
819.545532,321
819.664124,320
819.782715,313
819.901306,313
820.019897,312
820.138489,320
820.25708,319
820.375671,304
820.494202,328
820.612732,314
820.731384,318
820.849915,308
820.968506,315
821.087097,315
821.205627,323
821.324158,326
821.442749,316
821.561279,327
821.679871,326
821.798401,321
821.916931,321
822.035461,319
822.154053,313
822.272583,323
822.391174,341
822.509583,312
822.628174,326
822.746704,318
822.865234,319
822.983765,312
823.102295,324
823.220825,318
823.339294,309
823.457825,303
823.576355,317
823.694824,306
823.813354,321
823.931885,311
824.050354,309
824.168884,328
824.287354,320
824.405823,317
824.524353,314
824.642822,326
824.761353,310
824.879822,315
824.998291,308
825.116699,308
825.235291,313
825.353699,312
825.472168,304
825.590637,309
825.709106,308
825.827576,319
825.946045,312
826.064453,307
826.182983,318
826.301392,303
826.4198,322
826.53833,315
826.656738,310
826.775208,314
826.893677,318
827.012024,311
827.130493,322
827.248962,306
827.36731,315
827.485779,315
827.604248,307
827.722595,322
827.841064,314
827.959412,303
828.077942,316
828.196289,310
828.314636,319
828.433105,327
828.551514,320
828.669861,308
828.78833,320
828.906677,311
829.025085,324
829.143433,327
829.261841,303
829.38031,312
829.498657,305
829.617004,325
829.735413,317
829.85376,318
829.972107,314
830.090515,320
830.208862,326
830.327209,319
830.445557,306
830.563904,335
830.682312,317
830.800659,315
830.919006,323
831.037354,308
831.155701,318
831.274048,313
831.392395,320
831.51062,314
831.629028,321
831.747314,312
831.865662,308
831.984009,309
832.102356,322
832.220642,311
832.338928,325
832.457275,320
832.575623,317
832.693909,312
832.812134,312
832.930481,317
833.048828,315
833.167114,312
833.2854,310
833.403687,301
833.521973,334
833.640259,314
833.758545,305
833.876831,312
833.995056,320
834.113281,311
834.231628,331
834.349915,318
834.468201,332
834.586426,312
834.704651,311
834.822998,307
834.941162,323
835.059448,316
835.177673,324
835.295959,330
835.414246,309
835.53241,325
835.650635,317
835.768921,316
835.887146,320
836.005371,323
836.123596,322
836.241821,312
836.360046,313
836.478271,315
836.596497,329
836.714722,320
836.832886,317
836.95105,299
837.069336,324
837.1875,313
837.305725,324
837.423889,319
837.542053,327
837.660339,319
837.778503,318
837.896667,312
838.014832,325
838.132996,317
838.25116,323
838.369385,312
838.487488,307
838.605713,323
838.723877,328
838.84198,315
838.960205,325
839.078308,311
839.196472,303
839.314636,313
839.4328,329
839.550964,324
839.669067,316
839.787231,310
839.905396,309
840.023499,310
840.141602,318
840.259766,327
840.377869,314
840.495972,317
840.614136,327
840.732239,323
840.850342,319
840.968445,312
841.086548,324
841.204651,326
841.322754,309
841.440918,311
841.55896,328
841.677002,302
841.795166,329
841.913208,327
842.031311,313
842.149353,308
842.267456,325
842.385498,301
842.503601,324
842.621643,307
842.739746,326
842.857788,304
842.97583,307
843.093933,312
843.211975,303
843.330017,321
843.44812,313
843.566101,314
843.684204,325
843.802246,313
843.920227,313
844.038269,305
844.156311,332
844.274292,301
844.392395,319
844.510376,299
844.628357,308
844.74646,322
844.864441,322
844.982422,315
845.100403,320
845.218384,306
845.336426,317
845.454468,314
845.572449,310
845.69043,319
845.808411,305
845.926453,318
846.044373,329
846.162354,307
846.280396,323
846.398315,313
846.516296,317
846.634216,318
846.752197,309
846.870178,317
846.988098,321
847.106079,308
847.22406,322
847.34198,316
847.4599,320
847.577881,319
847.695801,329
847.813782,323
847.931641,327
848.049561,312
848.167603,317
848.285461,316
848.403381,318
848.521362,310
848.639221,312
848.75708,313
848.875,309
848.99292,321
849.110901,321
849.22876,322
849.34668,314
849.464539,339
849.582458,312
849.700317,302
849.818176,323
849.936096,313
850.053955,325
850.171875,310
850.289673,323
850.407593,304
850.525452,322
850.643311,324
850.761169,319
850.878967,329
850.996887,319
851.114746,319
851.232544,326
851.350403,312
851.468262,319
851.58606,307
851.703979,307
851.821777,322
851.939636,311
852.057434,302
852.175232,329
852.293091,322
852.410889,319
852.528687,300
852.646545,321
852.764343,311
852.88208,322
852.999939,311
853.117676,316
853.235535,310
853.353271,315
853.471069,319
853.588928,321
853.706604,306
853.824402,313
853.9422,304
854.059998,306
854.177734,334
854.295532,324
854.413269,321
854.531006,320
854.648804,316
854.766541,317
854.884277,322
855.002014,306
855.119751,320
855.237549,302
855.355225,303
855.473022,318
855.590698,308
855.708435,314
855.826172,327
855.943848,324
856.061646,318
856.179321,334
856.296997,312
856.414795,318
856.53241,314
856.650085,320
856.767822,318
856.885559,310
857.003174,317
857.120911,323
857.238586,311
857.356201,297
857.473938,310
857.591614,321
857.709351,311
857.826965,313
857.944641,306
858.062317,324
858.179993,319
858.297668,315
858.415283,311
858.532959,332
858.650574,333
858.768188,325
858.885803,305
859.003479,318
859.121094,305
859.23877,316
859.356384,304
859.473999,319
859.591675,304
859.709229,312
859.826843,305
859.944458,325
860.062012,307
860.179626,324
860.297302,295
860.414856,318
860.532471,315
860.650024,322
860.767639,319
860.885193,314
861.002808,312
861.120361,317
861.237976,326
861.35553,298
861.473022,318
861.590698,320
861.708191,299
861.825745,332
861.943298,319
862.060852,313
862.178406,320
862.295959,310
862.413513,327
862.531006,318
862.64856,321
862.766113,323
862.883667,316
863.00116,322
863.118713,325
863.236206,321
863.353699,311
863.471252,317
863.588745,311
863.706177,323
863.82373,308
863.941162,313
864.058716,301
864.176208,335
864.29364,312
864.411194,334
864.528687,314
864.646118,309
864.763611,321
864.881042,318
864.998535,304
865.116028,323
865.233459,310
865.350891,318
865.468384,332
865.585754,313
865.703308,312
865.820679,322
865.938171,315
866.055542,321
866.173035,321
866.290466,316
866.407837,304
866.52533,325
866.6427,315
866.760071,322
866.877563,315
866.994934,319
867.112305,322
867.229736,331
867.347107,297
867.464539,316
867.58197,313
867.699341,330
867.81665,306
867.934082,325
868.051453,318
868.168823,322
868.286194,325
868.403564,322
868.520935,310
868.638306,310
868.755676,320
868.872986,331
868.990295,310
869.107727,311
869.225037,310
869.342346,323
869.459717,319
869.577026,313
869.694336,307
869.811707,322
869.929016,307
870.046326,314
870.163635,309
870.280945,311
870.398254,318
870.515564,315
870.632812,304
870.750183,316
870.867432,314
870.984741,315
871.102051,325
871.219299,326
871.336609,320
871.453918,321
871.571106,306
871.688416,323
871.805664,307
871.922852,321
872.040222,315
872.157471,334
872.274719,317
872.391968,312
872.509155,310
872.626465,322
872.743652,316
872.860962,313
872.978149,292
873.095337,328
873.212646,319
873.329834,325
873.44696,314
873.564209,329
873.681396,318
873.798645,316
873.915894,313
874.03302,315
874.150208,326
874.267456,305
874.384583,295
874.501831,324
874.618958,308
874.736145,326
874.853333,317
874.970459,323
875.087646,310
875.204834,314
875.32196,317
875.439148,315
875.556274,311
875.673401,330
875.790527,308
875.907715,317
876.024841,313
876.141968,325
876.259094,336
876.376282,316
876.493347,324
876.610474,313
876.7276,315
876.844727,330
876.961853,325
877.078918,337
877.195984,301
877.313171,320
877.430237,324
877.547302,308
877.664368,333
877.781433,309
877.898499,318
878.015625,333
878.13269,316
878.249695,313
878.366821,305
878.483887,326
878.600952,322
878.717957,322
878.834961,307
878.952087,316
879.069092,306
879.186157,318
879.303162,309
879.420227,322
879.537231,303
879.654236,326
879.77124,321
879.888306,310
880.005249,322
880.122314,322
880.239319,304
880.356323,324
880.473328,311
880.590271,334
880.707275,310
880.824341,306
880.941284,318
881.058228,309
881.175232,310
881.292236,318
881.40918,309
881.526123,309
881.643066,306
881.760071,322
881.877014,302
881.993958,322
882.11084,326
882.227783,326
882.344727,313
882.46167,304
882.578613,319
882.695618,312
882.812439,317
882.929382,317
883.046326,318
883.163208,325
883.280151,327
883.397034,313
883.513916,314
883.630798,324
883.747742,312
883.864563,311
883.981506,297
884.098389,317
884.21521,310
884.332153,315
884.448975,327
884.565796,348
884.682678,326
884.7995,303
884.916443,320
885.033264,316
885.150085,307
885.266968,331
885.383789,302
885.500671,323
885.617493,320
885.734314,320
885.851196,315
885.967896,321
886.084717,305
886.201599,317
886.318359,321
886.435181,309
886.552002,321
886.668762,306
886.785645,310
886.902344,310
887.019165,321
887.135925,309
887.252747,326
887.369446,330
887.486267,315
887.603027,332
887.719788,317
887.836548,307
887.953247,310
888.070068,322
888.186829,327
888.303528,312
888.420288,305
888.536987,318
888.653687,306
888.770447,324
888.887146,318
889.003967,317
889.120667,321
889.237305,324
889.354065,314
889.470703,333
889.587463,322
889.704163,310
889.820862,320
889.937561,320
890.054199,310
890.170837,317
890.287598,325
890.404236,307
890.520874,325
890.637634,326
890.754211,316
890.87085,322
890.987549,303
891.104187,331
891.220886,314
891.337463,321
891.454102,304
891.57074,326
891.687378,311
891.804077,332
891.920654,313
892.037231,329
892.15387,302
892.270447,314
892.387085,316
892.503723,318
892.6203,311
892.736877,328
892.853516,312
892.970032,324
893.08667,312
893.203186,315
893.319763,317
893.43634,325
893.552917,323
893.669556,330
893.786011,316
893.902588,311
894.019165,313
894.135681,314
894.252197,306
894.368835,317
894.485291,318
894.601868,327
894.718384,309
894.8349,312
894.951355,316
895.067932,315
895.184448,318
895.300964,328
895.417419,317
895.533936,316
895.650452,316
895.766907,316
895.883423,316
895.999878,316
896.116333,307
896.232849,322
896.349304,304
896.465759,333
896.582214,315
896.698669,321
896.815125,305
896.931641,317
897.048035,319
897.164551,315
897.280884,312
897.397339,309
897.513794,318
897.630249,333
897.746582,324
897.863098,318
897.979431,312
898.095886,315
898.212341,309
898.328674,326
898.445129,316
898.561462,304
898.677795,306
898.794312,329
898.910645,320
899.026978,313
899.143433,306
899.259766,341
899.37616,321
899.492493,319
899.608765,316
899.725159,316
899.841553,324
899.957947,314
900.07428,297
900.190552,331
900.306946,320
900.423157,316
900.53949,318
900.655884,318
900.772156,327
900.888489,320
901.004822,319
901.121033,322
901.237366,308
901.353699,327
901.46991,322
901.586304,323
901.702515,322
901.818787,315
901.93512,331
902.051331,316
902.167603,317
902.283875,324
902.400085,315
902.516418,317
902.632629,309
902.74884,334
902.865112,320
902.981384,322
903.097595,319
903.213867,329
903.330017,318
903.446289,317
903.5625,315
903.67865,333
903.794922,310
903.911072,312
904.027344,325
904.143494,328
904.259705,320
904.375916,316
904.492065,327
904.608215,312
904.724426,317
904.840576,330
904.956726,314
905.072876,314
905.189087,321
905.305176,319
905.421387,314
905.537537,315
905.653687,319
905.769775,329
905.885925,324
906.002014,316
906.118164,305
906.234314,322
906.350403,306
906.466492,313
906.582642,324
906.69873,320
906.814758,318
906.930908,325
907.046936,324
907.163086,330
907.279175,321
907.395264,307
907.511353,322
907.62738,312
907.743408,320
907.859497,315
907.975525,329
908.091553,328
908.207703,310
908.32373,313
908.439758,314
908.555786,333
908.671814,321
908.787842,319
908.90387,318
909.019775,321
909.135864,319
909.251892,329
909.367859,315
909.483826,320
909.599854,317
909.715881,317
909.831848,310
909.947815,325
910.063782,310
910.179749,321
910.295776,320
910.411743,320
910.527649,316
910.643616,329
910.759583,315
910.875488,319
910.991455,325
911.107361,333
911.223267,316
911.339294,310
911.4552,313
911.571106,309
911.687073,316
911.802979,320
911.918823,324
912.034729,319
912.150635,314
912.266602,312
912.382446,318
912.498352,304
912.614197,314
912.730103,315
912.846008,300
