792.44574,329
792.56488,365
792.68396,420
792.80304,381
792.92218,349
793.041199,326
793.160339,333
793.279419,338
793.398499,343
793.517578,328
793.636658,330
793.755737,364
793.874817,347
793.993896,339
794.112976,348
794.232056,324
794.351074,340
794.470215,335
794.589233,337
794.708313,320
794.827393,320
794.946411,322
795.065552,356
795.18457,323
795.303589,348
795.422668,321
795.541687,329
795.660767,329
795.779846,338
795.898865,325
796.017883,321
796.136963,330
796.255981,343
796.375061,327
796.49408,328
796.613037,341
796.732117,341
796.851135,319
796.970154,330
797.089233,318
797.208191,339
797.327271,317
797.446228,340
797.565186,332
797.684265,319
797.803223,349
797.922241,322
798.04126,325
798.160278,337
798.279297,318
798.398315,331
798.517273,328
798.636292,327
798.75531,322
798.874268,343
798.993286,334
799.112244,332
799.231323,329
799.350281,338
799.469238,340
799.588257,328
799.707153,320
799.826111,326
799.945129,321
800.064087,340
800.183044,340
800.302063,341
800.421021,332
800.539978,336
800.658936,330
800.777893,331
800.896912,322
801.015747,323
801.134705,329
801.253723,341
801.37262,327
801.491638,340
801.610535,324
801.729492,325
801.84845,342
801.967407,332
802.086243,330
802.205261,323
802.324158,315
802.443115,324
802.562073,340
802.680969,332
802.799927,335
802.918762,332
803.037659,330
803.156677,323
803.275574,324
803.39447,329
803.513428,328
803.632263,335
803.751221,325
803.870117,338
803.989014,334
804.107971,313
804.226746,324
804.345642,327
804.4646,344
804.583496,324
804.702393,314
804.821228,336
804.940125,319
805.059021,327
805.177917,325
805.296814,338
805.415649,318
805.534546,328
805.653442,315
805.772278,332
805.891113,343
806.01001,339
806.128906,324
806.247742,324
806.366577,325
806.485413,321
806.604309,328
806.723145,327
806.84198,324
806.960876,336
807.079712,324
807.198486,335
807.317383,330
807.436218,328
807.554993,331
807.673889,319
807.792725,327
807.91156,331
808.030396,314
808.14917,326
808.268005,329
808.386841,333
808.505676,330
808.624451,335
808.743286,328
808.862122,329
808.980896,346
809.099731,329
809.218506,325
809.337341,339
809.456116,330
809.57489,336
809.693726,328
809.8125,331
809.931274,334
810.050049,333
810.168884,332
810.287659,335
810.406372,321
810.525269,330
810.643982,328
810.762756,334
810.881531,326
811.000305,330
811.11908,333
811.237854,326
811.356567,322
811.475403,342
811.594116,326
811.71283,337
811.831604,324
811.950378,334
812.069153,317
812.187927,334
812.30658,334
812.425415,335
812.544128,324
812.662781,328
812.781616,328
812.900269,332
813.019043,311
813.137756,333
813.256531,326
813.375244,331
813.493896,332
813.612671,322
813.731384,342
813.850037,320
813.96875,330
814.087524,331
814.206238,340
814.324951,331
814.443604,326
814.562256,318
814.68103,318
814.799683,335
814.918335,337
815.037109,332
815.155762,319
815.274475,322
815.393188,315
815.511841,329
815.630554,335
815.749146,332
815.867859,317
815.986572,332
816.105164,321
816.223877,325
816.342529,331
816.461182,332
816.579895,324
816.698486,324
816.817139,319
816.935791,326
817.054504,324
817.173096,336
817.291748,328
817.4104,326
817.529053,333
817.647644,349
817.766235,328
817.884949,324
818.00354,318
818.122192,317
818.240845,322
818.359436,322
818.478088,332
818.59668,342
818.715271,325
818.833923,324
818.952515,311
819.071106,334
819.189758,305
819.30835,312
819.426941,329
819.545532,315
819.664124,316
819.782715,312
819.901306,310
820.019897,323
820.138489,315
820.25708,333
820.375671,321
820.494202,320
820.612732,316
820.731384,332
820.849915,313
820.968506,330
821.087097,324
821.205627,325
821.324158,319
821.442749,337
821.561279,320
821.679871,322
821.798401,317
821.916931,317
822.035461,330
822.154053,331
822.272583,313
822.391174,320
822.509583,328
822.628174,318
822.746704,294
822.865234,332
822.983765,324
823.102295,329
823.220825,321
823.339294,324
823.457825,317
823.576355,312
823.694824,323
823.813354,315
823.931885,304
824.050354,322
824.168884,312
824.287354,325
824.405823,312
824.524353,318
824.642822,309
824.761353,310
824.879822,325
824.998291,338
825.116699,316
825.235291,334
825.353699,302
825.472168,330
825.590637,311
825.709106,328
825.827576,303
825.946045,320
826.064453,315
826.182983,319
826.301392,321
826.4198,319
826.53833,323
826.656738,319
826.775208,309
826.893677,313
827.012024,300
827.130493,320
827.248962,311
827.36731,326
827.485779,313
827.604248,310
827.722595,325
827.841064,329
827.959412,321
828.077942,331
828.196289,318
828.314636,305
828.433105,316
828.551514,320
828.669861,316
828.78833,324
828.906677,311
829.025085,322
829.143433,320
829.261841,311
829.38031,314
829.498657,302
829.617004,315
829.735413,315
829.85376,309
829.972107,326
830.090515,320
830.208862,307
830.327209,323
830.445557,322
830.563904,321
830.682312,315
830.800659,311
830.919006,330
831.037354,312
831.155701,302
831.274048,314
831.392395,310
831.51062,339
831.629028,320
831.747314,316
831.865662,315
831.984009,315
832.102356,319
832.220642,316
832.338928,314
832.457275,320
832.575623,320
832.693909,323
832.812134,322
832.930481,299
833.048828,323
833.167114,315
833.2854,329
833.403687,324
833.521973,315
833.640259,319
833.758545,310
833.876831,314
833.995056,317
834.113281,300
834.231628,317
834.349915,309
834.468201,320
834.586426,315
834.704651,314
834.822998,320
834.941162,313
835.059448,314
835.177673,310
835.295959,326
835.414246,323
835.53241,315
835.650635,322
835.768921,316
835.887146,327
836.005371,322
836.123596,313
836.241821,310
836.360046,315
836.478271,316
836.596497,304
836.714722,331
836.832886,323
836.95105,313
837.069336,321
837.1875,315
837.305725,314
837.423889,313
837.542053,320
837.660339,318
837.778503,333
837.896667,307
838.014832,320
838.132996,309
838.25116,316
838.369385,322
838.487488,333
838.605713,315
838.723877,310
838.84198,324
838.960205,310
839.078308,309
839.196472,323
839.314636,318
839.4328,324
839.550964,309
839.669067,304
839.787231,312
839.905396,314
840.023499,305
840.141602,305
840.259766,326
840.377869,318
840.495972,328
840.614136,316
840.732239,315
840.850342,328
840.968445,310
841.086548,319
841.204651,324
841.322754,318
841.440918,320
841.55896,329
841.677002,325
841.795166,328
841.913208,324
842.031311,318
842.149353,321
842.267456,329
842.385498,309
842.503601,311
842.621643,324
842.739746,322
842.857788,307
842.97583,318
843.093933,309
843.211975,321
843.330017,321
843.44812,326
843.566101,312
843.684204,325
843.802246,314
843.920227,334
844.038269,323
844.156311,326
844.274292,307
844.392395,322
844.510376,315
844.628357,322
844.74646,304
844.864441,322
844.982422,318
845.100403,312
845.218384,323
845.336426,312
845.454468,325
845.572449,316
845.69043,318
845.808411,303
845.926453,315
846.044373,318
846.162354,331
846.280396,338
846.398315,310
846.516296,316
846.634216,321
846.752197,320
846.870178,301
846.988098,312
847.106079,303
847.22406,316
847.34198,303
847.4599,325
847.577881,311
847.695801,318
847.813782,322
847.931641,328
848.049561,318
848.167603,318
848.285461,298
848.403381,314
848.521362,322
848.639221,315
848.75708,316
848.875,322
848.99292,310
849.110901,317
849.22876,317
849.34668,330
849.464539,319
849.582458,311
849.700317,308
849.818176,325
849.936096,321
850.053955,325
850.171875,319
850.289673,324
850.407593,306
850.525452,324
850.643311,315
850.761169,330
850.878967,326
850.996887,328
851.114746,328
851.232544,330
851.350403,317
851.468262,326
851.58606,303
851.703979,321
851.821777,306
851.939636,314
852.057434,314
852.175232,316
852.293091,317
852.410889,321
852.528687,316
852.646545,317
852.764343,314
852.88208,316
852.999939,323
853.117676,315
853.235535,311
853.353271,315
853.471069,313
853.588928,319
853.706604,315
853.824402,319
853.9422,321
854.059998,323
854.177734,300
854.295532,307
854.413269,304
854.531006,318
854.648804,316
854.766541,317
854.884277,306
855.002014,321
855.119751,300
855.237549,312
855.355225,325
855.473022,314
855.590698,312
855.708435,337
855.826172,314
855.943848,324
856.061646,312
856.179321,313
856.296997,316
856.414795,322
856.53241,313
856.650085,330
856.767822,305
856.885559,337
857.003174,328
857.120911,323
857.238586,321
857.356201,321
857.473938,328
857.591614,333
857.709351,319
857.826965,313
857.944641,309
858.062317,314
858.179993,317
858.297668,321
858.415283,321
858.532959,327
858.650574,322
858.768188,318
858.885803,305
859.003479,317
859.121094,327
859.23877,322
859.356384,320
859.473999,316
859.591675,319
859.709229,327
859.826843,319
859.944458,331
860.062012,329
860.179626,320
860.297302,312
860.414856,324
860.532471,325
860.650024,317
860.767639,314
860.885193,316
861.002808,311
861.120361,317
861.237976,320
861.35553,311
861.473022,310
861.590698,311
861.708191,321
861.825745,314
861.943298,335
862.060852,315
862.178406,314
862.295959,311
862.413513,311
862.531006,322
862.64856,307
862.766113,317
862.883667,315
863.00116,322
863.118713,313
863.236206,312
863.353699,314
863.471252,309
863.588745,312
863.706177,320
863.82373,326
863.941162,318
864.058716,309
864.176208,308
864.29364,319
864.411194,323
864.528687,311
864.646118,326
864.763611,323
864.881042,308
864.998535,321
865.116028,321
865.233459,317
865.350891,316
865.468384,311
865.585754,330
865.703308,313
865.820679,329
865.938171,313
866.055542,326
866.173035,325
866.290466,309
866.407837,320
866.52533,301
866.6427,319
866.760071,315
866.877563,317
866.994934,331
867.112305,315
867.229736,335
867.347107,312
867.464539,321
867.58197,315
867.699341,315
867.81665,324
867.934082,308
868.051453,327
868.168823,313
868.286194,315
868.403564,317
868.520935,302
868.638306,313
868.755676,314
868.872986,323
868.990295,321
869.107727,323
869.225037,328
869.342346,333
869.459717,300
869.577026,321
869.694336,333
869.811707,319
869.929016,328
870.046326,323
870.163635,318
870.280945,318
870.398254,303
870.515564,316
870.632812,310
870.750183,313
870.867432,309
870.984741,326
871.102051,316
871.219299,315
871.336609,310
871.453918,328
871.571106,316
871.688416,313
871.805664,309
871.922852,323
872.040222,317
872.157471,325
872.274719,319
872.391968,320
872.509155,312
872.626465,307
872.743652,313
872.860962,314
872.978149,316
873.095337,312
873.212646,306
873.329834,309
873.44696,324
873.564209,309
873.681396,310
873.798645,310
873.915894,329
874.03302,322
874.150208,329
874.267456,333
874.384583,327
874.501831,324
874.618958,319
874.736145,313
874.853333,325
874.970459,321
875.087646,322
875.204834,322
875.32196,315
875.439148,328
875.556274,303
875.673401,322
875.790527,315
875.907715,313
876.024841,334
876.141968,331
876.259094,314
876.376282,326
876.493347,311
876.610474,314
876.7276,318
876.844727,323
876.961853,334
877.078918,316
877.195984,317
877.313171,311
877.430237,326
877.547302,325
877.664368,311
877.781433,315
877.898499,325
878.015625,327
878.13269,319
878.249695,323
878.366821,321
878.483887,324
878.600952,320
878.717957,318
878.834961,318
878.952087,324
879.069092,313
879.186157,326
879.303162,307
879.420227,317
879.537231,314
879.654236,323
879.77124,324
879.888306,322
880.005249,308
880.122314,322
880.239319,304
880.356323,321
880.473328,323
880.590271,310
880.707275,316
880.824341,313
880.941284,311
881.058228,317
881.175232,311
881.292236,327
881.40918,304
881.526123,307
881.643066,317
881.760071,313
881.877014,312
881.993958,313
882.11084,326
882.227783,321
882.344727,310
882.46167,321
882.578613,324
882.695618,325
882.812439,318
882.929382,320
883.046326,317
883.163208,310
883.280151,307
883.397034,325
883.513916,315
883.630798,307
883.747742,309
883.864563,316
883.981506,314
884.098389,328
884.21521,314
884.332153,327
884.448975,322
884.565796,323
884.682678,324
884.7995,330
884.916443,308
885.033264,333
885.150085,315
885.266968,313
885.383789,319
885.500671,320
885.617493,330
885.734314,329
885.851196,319
885.967896,320
886.084717,316
886.201599,330
886.318359,311
886.435181,325
886.552002,328
886.668762,315
886.785645,328
886.902344,324
887.019165,304
887.135925,336
887.252747,309
887.369446,310
887.486267,316
887.603027,332
887.719788,314
887.836548,331
887.953247,313
888.070068,329
888.186829,322
888.303528,326
888.420288,315
888.536987,318
888.653687,318
888.770447,318
888.887146,318
889.003967,331
889.120667,312
889.237305,313
889.354065,314
889.470703,320
889.587463,309
889.704163,326
889.820862,311
889.937561,315
890.054199,324
890.170837,320
890.287598,323
890.404236,310
890.520874,313
890.637634,319
890.754211,318
890.87085,325
890.987549,315
891.104187,323
891.220886,307
891.337463,322
891.454102,306
891.57074,333
891.687378,302
891.804077,320
891.920654,310
892.037231,324
892.15387,314
892.270447,308
892.387085,319
892.503723,329
892.6203,311
892.736877,317
892.853516,324
892.970032,313
893.08667,308
893.203186,323
893.319763,309
893.43634,308
893.552917,314
893.669556,314
893.786011,300
893.902588,327
894.019165,310
894.135681,317
894.252197,312
894.368835,311
894.485291,316
894.601868,317
894.718384,318
894.8349,324
894.951355,312
895.067932,327
895.184448,322
895.300964,325
895.417419,323
895.533936,306
895.650452,322
895.766907,322
895.883423,304
895.999878,318
896.116333,323
896.232849,310
896.349304,297
896.465759,328
896.582214,314
896.698669,328
896.815125,305
896.931641,325
897.048035,327
897.164551,320
897.280884,308
897.397339,319
897.513794,304
897.630249,315
897.746582,322
897.863098,326
897.979431,318
898.095886,315
898.212341,313
898.328674,319
898.445129,314
898.561462,322
898.677795,325
898.794312,330
898.910645,317
899.026978,322
899.143433,319
899.259766,317
899.37616,315
899.492493,331
899.608765,315
899.725159,329
899.841553,309
899.957947,306
900.07428,319
900.190552,338
900.306946,308
900.423157,330
900.53949,329
900.655884,311
900.772156,316
900.888489,332
901.004822,309
901.121033,337
901.237366,301
901.353699,319
901.46991,316
901.586304,327
901.702515,322
901.818787,319
901.93512,308
902.051331,307
902.167603,315
902.283875,319
902.400085,305
902.516418,326
902.632629,313
902.74884,330
902.865112,309
902.981384,311
903.097595,332
903.213867,318
903.330017,313
903.446289,317
903.5625,313
903.67865,326
903.794922,306
903.911072,318
904.027344,330
904.143494,320
904.259705,316
904.375916,314
904.492065,320
904.608215,330
904.724426,327
904.840576,323
904.956726,316
905.072876,327
905.189087,324
905.305176,321
905.421387,320
905.537537,326
905.653687,319
905.769775,322
905.885925,309
906.002014,325
906.118164,321
906.234314,314
906.350403,330
906.466492,327
906.582642,316
906.69873,323
906.814758,310
906.930908,321
907.046936,322
907.163086,312
907.279175,316
907.395264,325
907.511353,313
907.62738,318
907.743408,307
907.859497,318
907.975525,311
908.091553,325
908.207703,306
908.32373,337
908.439758,320
908.555786,312
908.671814,331
908.787842,307
908.90387,300
909.019775,325
909.135864,318
909.251892,332
909.367859,316
909.483826,335
909.599854,321
909.715881,326
909.831848,332
909.947815,317
910.063782,309
910.179749,326
910.295776,313
910.411743,321
910.527649,305
910.643616,339
910.759583,300
910.875488,317
910.991455,317
911.107361,318
911.223267,308
911.339294,322
911.4552,307
911.571106,330
911.687073,325
911.802979,314
911.918823,313
912.034729,325
912.150635,315
912.266602,319
912.382446,309
912.498352,323
912.614197,319
912.730103,315
912.846008,311
792.44574,329
792.56488,357
792.68396,400
792.80304,385
792.92218,339
793.041199,330
793.160339,328
793.279419,350
793.398499,331
793.517578,318
793.636658,335
793.755737,345
793.874817,362
793.993896,351
794.112976,362
794.232056,330
794.351074,328
794.470215,352
794.589233,346
794.708313,338
794.827393,339
794.946411,338
795.065552,330
795.18457,331
795.303589,350
795.422668,343
795.541687,337
795.660767,331
795.779846,333
795.898865,338
796.017883,328
796.136963,314
796.255981,332
796.375061,342
796.49408,330
796.613037,333
796.732117,323
796.851135,327
796.970154,325
797.089233,329
797.208191,326
797.327271,325
797.446228,345
797.565186,341
797.684265,324
797.803223,346
797.922241,331
798.04126,338
798.160278,329
798.279297,329
798.398315,336
798.517273,338
798.636292,343
798.75531,317
798.874268,328
798.993286,333
799.112244,316
799.231323,329
799.350281,334
799.469238,330
799.588257,337
799.707153,323
799.826111,331
799.945129,327
800.064087,331
800.183044,329
800.302063,324
800.421021,322
800.539978,329
800.658936,330
800.777893,329
800.896912,322
801.015747,331
801.134705,314
801.253723,325
801.37262,334
801.491638,322
801.610535,332
801.729492,337
801.84845,323
801.967407,337
802.086243,333
802.205261,340
802.324158,312
802.443115,335
802.562073,320
802.680969,321
802.799927,323
802.918762,321
803.037659,329
803.156677,344
803.275574,321
803.39447,333
803.513428,328
803.632263,327
803.751221,334
803.870117,327
803.989014,314
804.107971,343
804.226746,333
804.345642,330
804.4646,335
804.583496,317
804.702393,334
804.821228,321
804.940125,328
805.059021,335
805.177917,318
805.296814,324
805.415649,336
805.534546,341
805.653442,323
805.772278,341
805.891113,337
806.01001,325
806.128906,316
806.247742,339
806.366577,326
806.485413,330
806.604309,338
806.723145,316
806.84198,322
806.960876,326
807.079712,328
807.198486,330
807.317383,336
807.436218,341
807.554993,316
807.673889,343
807.792725,317
807.91156,321
808.030396,335
808.14917,324
808.268005,328
808.386841,317
808.505676,332
808.624451,323
808.743286,330
808.862122,334
808.980896,328
809.099731,318
809.218506,327
809.337341,338
809.456116,331
809.57489,329
809.693726,320
809.8125,324
809.931274,341
810.050049,332
810.168884,328
810.287659,333
810.406372,327
810.525269,321
810.643982,343
810.762756,317
810.881531,338
811.000305,336
811.11908,324
811.237854,329
811.356567,330
811.475403,326
811.594116,317
811.71283,325
811.831604,336
811.950378,317
812.069153,321
812.187927,337
812.30658,322
812.425415,319
812.544128,323
812.662781,331
812.781616,328
812.900269,334
813.019043,339
813.137756,342
813.256531,340
813.375244,323
813.493896,318
813.612671,324
813.731384,332
813.850037,334
813.96875,317
814.087524,321
814.206238,336
814.324951,316
814.443604,340
814.562256,329
814.68103,324
814.799683,319
814.918335,332
815.037109,330
815.155762,329
815.274475,329
815.393188,325
815.511841,348
815.630554,308
815.749146,331
815.867859,329
815.986572,328
816.105164,326
816.223877,338
816.342529,334
816.461182,326
816.579895,332
816.698486,329
816.817139,338
816.935791,326
817.054504,319
817.173096,343
817.291748,341
817.4104,332
817.529053,320
817.647644,330
817.766235,317
817.884949,324
818.00354,315
818.122192,334
818.240845,324
818.359436,330
818.478088,318
818.59668,313
818.715271,319
818.833923,325
818.952515,328
819.071106,319
819.189758,306
819.30835,332
819.426941,325
819.545532,321
819.664124,318
819.782715,329
819.901306,310
820.019897,313
820.138489,313
820.25708,313
820.375671,313
820.494202,317
820.612732,335
820.731384,325
820.849915,315
820.968506,331
821.087097,307
821.205627,325
821.324158,329
821.442749,327
821.561279,308
821.679871,310
821.798401,317
821.916931,329
822.035461,306
822.154053,328
822.272583,306
822.391174,316
822.509583,308
822.628174,323
822.746704,324
822.865234,316
822.983765,313
823.102295,334
823.220825,312
823.339294,316
823.457825,300
823.576355,320
823.694824,320
823.813354,321
823.931885,317
824.050354,327
824.168884,325
824.287354,326
824.405823,308
824.524353,319
824.642822,332
824.761353,323
824.879822,312
824.998291,318
825.116699,321
825.235291,307
825.353699,313
825.472168,320
825.590637,319
825.709106,314
825.827576,304
825.946045,324
826.064453,319
826.182983,325
826.301392,322
826.4198,309
826.53833,318
826.656738,314
826.775208,304
826.893677,323
827.012024,326
827.130493,327
827.248962,323
827.36731,319
827.485779,318
827.604248,312
827.722595,324
827.841064,322
827.959412,313
828.077942,324
828.196289,305
828.314636,320
828.433105,318
828.551514,318
828.669861,318
828.78833,322
828.906677,320
829.025085,319
829.143433,311
829.261841,333
829.38031,312
829.498657,319
829.617004,313
829.735413,326
829.85376,330
829.972107,315
830.090515,313
830.208862,318
830.327209,318
830.445557,308
830.563904,310
830.682312,314
830.800659,319
830.919006,316
831.037354,320
831.155701,332
831.274048,311
831.392395,330
831.51062,306
831.629028,320
831.747314,313
831.865662,322
831.984009,305
832.102356,329
832.220642,311
832.338928,317
832.457275,309
832.575623,321
832.693909,318
832.812134,326
832.930481,326
833.048828,308
833.167114,321
833.2854,325
833.403687,326
833.521973,310
833.640259,323
833.758545,327
833.876831,303
833.995056,322
834.113281,312
834.231628,329
834.349915,311
834.468201,304
834.586426,318
834.704651,304
834.822998,328
834.941162,314
835.059448,324
835.177673,316
835.295959,310
835.414246,328
835.53241,314
835.650635,311
835.768921,323
835.887146,325
836.005371,332
836.123596,317
836.241821,326
836.360046,315
836.478271,320
836.596497,329
836.714722,319
836.832886,322
836.95105,313
837.069336,320
837.1875,319
837.305725,319
837.423889,314
837.542053,304
837.660339,312
837.778503,313
837.896667,312
838.014832,315
838.132996,317
838.25116,325
838.369385,326
838.487488,308
838.605713,324
838.723877,313
838.84198,319
838.960205,323
839.078308,314
839.196472,317
839.314636,319
839.4328,315
839.550964,328
839.669067,322
839.787231,303
839.905396,299
840.023499,321
840.141602,321
840.259766,327
840.377869,323
840.495972,322
840.614136,327
840.732239,321
840.850342,319
840.968445,318
841.086548,314
841.204651,310
841.322754,318
841.440918,322
841.55896,321
841.677002,319
841.795166,324
841.913208,319
842.031311,329
842.149353,315
842.267456,326
842.385498,315
842.503601,326
842.621643,315
842.739746,299
842.857788,316
842.97583,310
843.093933,310
843.211975,325
843.330017,322
843.44812,340
843.566101,305
843.684204,312
843.802246,313
843.920227,321
844.038269,317
844.156311,316
844.274292,313
844.392395,326
844.510376,323
844.628357,326
844.74646,320
844.864441,325
844.982422,304
845.100403,325
845.218384,318
845.336426,315
845.454468,313
845.572449,332
845.69043,326
845.808411,322
845.926453,315
846.044373,316
846.162354,314
846.280396,320
846.398315,315
846.516296,313
846.634216,327
846.752197,329
846.870178,318
846.988098,334
847.106079,325
847.22406,317
847.34198,323
847.4599,318
847.577881,307
847.695801,318
847.813782,307
847.931641,318
848.049561,323
848.167603,323
848.285461,318
848.403381,330
848.521362,324
848.639221,308
848.75708,316
848.875,307
848.99292,313
849.110901,327
849.22876,319
849.34668,321
849.464539,313
849.582458,312
849.700317,309
849.818176,333
849.936096,321
850.053955,310
850.171875,313
850.289673,307
850.407593,296
850.525452,323
850.643311,309
850.761169,322
850.878967,322
850.996887,327
851.114746,326
851.232544,316
851.350403,325
851.468262,310
851.58606,308
851.703979,310
851.821777,309
851.939636,314
852.057434,308
852.175232,318
852.293091,306
852.410889,323
852.528687,320
852.646545,334
852.764343,328
852.88208,320
852.999939,309
853.117676,322
853.235535,312
853.353271,315
853.471069,316
853.588928,326
853.706604,317
853.824402,329
853.9422,318
854.059998,318
854.177734,311
854.295532,318
854.413269,315
854.531006,310
854.648804,326
854.766541,316
854.884277,322
855.002014,313
855.119751,319
855.237549,318
855.355225,314
855.473022,325
855.590698,312
855.708435,325
855.826172,326
855.943848,320
856.061646,316
856.179321,322
856.296997,320
856.414795,324
856.53241,328
856.650085,319
856.767822,311
856.885559,307
857.003174,312
857.120911,312
857.238586,325
857.356201,306
857.473938,306
857.591614,333
857.709351,306
857.826965,331
857.944641,312
858.062317,321
858.179993,311
858.297668,316
858.415283,306
858.532959,322
858.650574,326
858.768188,323
858.885803,309
859.003479,315
859.121094,319
859.23877,314
859.356384,325
859.473999,315
859.591675,320
859.709229,326
859.826843,317
859.944458,321
860.062012,314
860.179626,332
860.297302,319
860.414856,318
860.532471,316
860.650024,310
860.767639,319
860.885193,312
861.002808,315
861.120361,326
861.237976,306
861.35553,312
861.473022,324
861.590698,313
861.708191,307
861.825745,323
861.943298,317
862.060852,325
862.178406,314
862.295959,307
862.413513,312
862.531006,317
862.64856,312
862.766113,325
862.883667,328
863.00116,325
863.118713,320
863.236206,307
863.353699,317
863.471252,336
863.588745,321
863.706177,325
863.82373,308
863.941162,318
864.058716,324
864.176208,327
864.29364,318
864.411194,303
864.528687,308
864.646118,320
864.763611,316
864.881042,321
864.998535,323
865.116028,321
865.233459,316
865.350891,321
865.468384,332
865.585754,322
865.703308,315
865.820679,327
865.938171,318
866.055542,316
866.173035,315
866.290466,326
866.407837,307
866.52533,325
866.6427,318
866.760071,327
866.877563,303
866.994934,319
867.112305,327
867.229736,326
867.347107,311
867.464539,321
867.58197,311
867.699341,309
867.81665,318
867.934082,306
868.051453,312
868.168823,322
868.286194,310
868.403564,310
868.520935,311
868.638306,316
868.755676,323
868.872986,317
868.990295,329
869.107727,318
869.225037,329
869.342346,314
869.459717,304
869.577026,326
869.694336,314
869.811707,336
869.929016,328
870.046326,325
870.163635,319
870.280945,325
870.398254,318
870.515564,313
870.632812,305
870.750183,311
870.867432,319
870.984741,324
871.102051,318
871.219299,321
871.336609,308
871.453918,325
871.571106,310
871.688416,313
871.805664,303
871.922852,331
872.040222,312
872.157471,321
872.274719,302
872.391968,324
872.509155,318
872.626465,323
872.743652,307
872.860962,319
872.978149,312
873.095337,322
873.212646,309
873.329834,305
873.44696,315
873.564209,321
873.681396,320
873.798645,325
873.915894,319
874.03302,306
874.150208,313
874.267456,324
874.384583,315
874.501831,319
874.618958,325
874.736145,331
874.853333,310
874.970459,326
875.087646,315
875.204834,315
875.32196,325
875.439148,319
875.556274,316
875.673401,312
875.790527,326
875.907715,319
876.024841,312
876.141968,322
876.259094,310
876.376282,313
876.493347,321
876.610474,334
876.7276,323
876.844727,312
876.961853,318
877.078918,322
877.195984,321
877.313171,317
877.430237,322
877.547302,321
877.664368,310
877.781433,327
877.898499,327
878.015625,304
878.13269,323
878.249695,313
878.366821,321
878.483887,322
878.600952,319
878.717957,322
878.834961,309
878.952087,321
879.069092,309
879.186157,317
879.303162,311
879.420227,311
879.537231,321
879.654236,289
879.77124,308
879.888306,308
880.005249,312
880.122314,326
880.239319,315
880.356323,325
880.473328,317
880.590271,313
880.707275,324
880.824341,317
880.941284,317
881.058228,325
881.175232,319
881.292236,327
881.40918,298
881.526123,313
881.643066,307
881.760071,313
881.877014,312
881.993958,324
882.11084,309
882.227783,325
882.344727,310
882.46167,324
882.578613,306
882.695618,319
882.812439,320
882.929382,317
883.046326,314
883.163208,333
883.280151,315
883.397034,338
883.513916,308
883.630798,326
883.747742,320
883.864563,324
883.981506,318
884.098389,318
884.21521,315
884.332153,317
884.448975,308
884.565796,319
884.682678,328
884.7995,323
884.916443,323
885.033264,318
885.150085,318
885.266968,326
885.383789,334
885.500671,320
885.617493,325
885.734314,321
885.851196,313
885.967896,324
886.084717,323
886.201599,319
886.318359,321
886.435181,317
886.552002,315
886.668762,316
886.785645,300
886.902344,324
887.019165,317
887.135925,324
887.252747,324
887.369446,306
887.486267,331
887.603027,319
887.719788,326
887.836548,324
887.953247,307
888.070068,323
888.186829,310
888.303528,340
888.420288,323
888.536987,332
888.653687,318
888.770447,307
888.887146,318
889.003967,317
889.120667,311
889.237305,321
889.354065,321
889.470703,325
889.587463,325
889.704163,311
889.820862,310
889.937561,329
890.054199,306
890.170837,326
890.287598,302
890.404236,314
890.520874,319
890.637634,323
890.754211,307
890.87085,304
890.987549,314
891.104187,322
891.220886,310
891.337463,337
891.454102,317
891.57074,321
891.687378,323
891.804077,317
891.920654,315
892.037231,315
892.15387,318
892.270447,333
892.387085,315
892.503723,320
892.6203,300
892.736877,314
892.853516,321
892.970032,321
893.08667,316
893.203186,309
893.319763,305
893.43634,319
893.552917,328
893.669556,329
893.786011,315
893.902588,329
894.019165,322
894.135681,316
894.252197,321
894.368835,310
894.485291,317
894.601868,308
894.718384,323
894.8349,328
894.951355,312
895.067932,315
895.184448,320
895.300964,336
895.417419,309
895.533936,327
895.650452,315
895.766907,324
895.883423,320
895.999878,315
896.116333,314
896.232849,312
896.349304,317
896.465759,315
896.582214,316
896.698669,307
896.815125,306
896.931641,320
897.048035,308
897.164551,314
897.280884,298
897.397339,328
897.513794,326
897.630249,306
897.746582,318
897.863098,310
897.979431,301
898.095886,303
898.212341,312
898.328674,313
898.445129,311
898.561462,325
898.677795,316
898.794312,331
898.910645,322
899.026978,327
899.143433,304
899.259766,312
899.37616,320
899.492493,311
899.608765,320
899.725159,311
899.841553,319
899.957947,318
900.07428,333
900.190552,324
900.306946,308
900.423157,318
900.53949,324
900.655884,308
900.772156,317
900.888489,311
901.004822,308
901.121033,309
901.237366,318
901.353699,321
901.46991,316
901.586304,317
901.702515,321
901.818787,325
901.93512,317
902.051331,329
902.167603,314
902.283875,326
902.400085,316
902.516418,321
902.632629,326
902.74884,321
902.865112,321
902.981384,349
903.097595,306
903.213867,316
903.330017,315
903.446289,319
903.5625,325
903.67865,325
903.794922,313
903.911072,307
904.027344,306
904.143494,322
904.259705,310
904.375916,333
904.492065,309
904.608215,324
904.724426,320
904.840576,315
904.956726,325
905.072876,331
905.189087,315
905.305176,324
905.421387,315
905.537537,317
905.653687,328
905.769775,309
905.885925,312
906.002014,333
906.118164,330
906.234314,321
906.350403,315
906.466492,322
906.582642,311
906.69873,331
906.814758,318
906.930908,326
907.046936,326
907.163086,322
907.279175,312
907.395264,324
907.511353,307
907.62738,327
907.743408,325
907.859497,311
907.975525,310
908.091553,316
908.207703,313
908.32373,317
908.439758,319
908.555786,321
908.671814,314
908.787842,314
908.90387,310
909.019775,331
909.135864,314
909.251892,339
909.367859,323
909.483826,313
909.599854,322
909.715881,315
909.831848,309
909.947815,318
910.063782,328
910.179749,319
910.295776,315
910.411743,318
910.527649,325
910.643616,321
910.759583,328
910.875488,322
910.991455,331
911.107361,319
911.223267,316
911.339294,319
911.4552,312
911.571106,324
911.687073,319
911.802979,323
911.918823,321
912.034729,317
912.150635,316
912.266602,324
912.382446,314
912.498352,323
912.614197,315
912.730103,321
912.846008,301
792.44574,328
792.56488,361
792.68396,417
792.80304,396
792.92218,351
793.041199,325
793.160339,328
793.279419,353
793.398499,335
793.517578,318
793.636658,331
793.755737,338
793.874817,365
793.993896,361
794.112976,331
794.232056,356
794.351074,338
794.470215,347
794.589233,345
794.708313,322
794.827393,341
794.946411,336
795.065552,340
795.18457,335
795.303589,353
795.422668,349
795.541687,348
795.660767,343
795.779846,337
795.898865,340
796.017883,325
796.136963,321
796.255981,348
796.375061,343
796.49408,343
796.613037,344
796.732117,351
796.851135,343
796.970154,345
797.089233,331
797.208191,337
797.327271,341
797.446228,336
797.565186,341
797.684265,328
797.803223,335
797.922241,330
798.04126,333
798.160278,337
798.279297,340
798.398315,329
798.517273,319
798.636292,330
798.75531,332
798.874268,337
798.993286,328
799.112244,345
799.231323,322
799.350281,334
799.469238,350
799.588257,329
799.707153,334
799.826111,330
799.945129,327
800.064087,325
800.183044,329
800.302063,323
800.421021,343
800.539978,336
800.658936,324
800.777893,328
800.896912,329
801.015747,329
801.134705,326
801.253723,331
801.37262,333
801.491638,323
801.610535,346
801.729492,338
801.84845,321
801.967407,328
802.086243,333
802.205261,333
802.324158,337
802.443115,341
802.562073,338
802.680969,317
802.799927,327
802.918762,318
803.037659,319
803.156677,327
803.275574,327
803.39447,332
803.513428,336
803.632263,326
803.751221,337
803.870117,344
803.989014,315
804.107971,333
804.226746,325
804.345642,337
804.4646,320
804.583496,334
804.702393,327
804.821228,330
804.940125,342
805.059021,340
805.177917,325
805.296814,338
805.415649,341
805.534546,319
805.653442,329
805.772278,327
805.891113,323
806.01001,322
806.128906,338
806.247742,328
806.366577,318
806.485413,336
806.604309,334
806.723145,324
806.84198,329
806.960876,348
807.079712,333
807.198486,314
807.317383,337
807.436218,314
807.554993,336
807.673889,346
807.792725,322
807.91156,333
808.030396,334
808.14917,329
808.268005,330
808.386841,330
808.505676,330
808.624451,328
808.743286,331
808.862122,328
808.980896,327
809.099731,330
809.218506,332
809.337341,342
809.456116,334
809.57489,326
809.693726,321
809.8125,337
809.931274,337
810.050049,333
810.168884,338
810.287659,333
810.406372,316
810.525269,325
810.643982,337
810.762756,326
810.881531,325
811.000305,329
811.11908,327
811.237854,315
811.356567,320
811.475403,331
811.594116,328
811.71283,321
811.831604,337
811.950378,333
812.069153,326
812.187927,331
812.30658,336
812.425415,336
812.544128,334
812.662781,335
812.781616,322
812.900269,333
813.019043,329
813.137756,326
813.256531,330
813.375244,336
813.493896,348
813.612671,332
813.731384,321
813.850037,323
813.96875,321
814.087524,311
814.206238,347
814.324951,330
814.443604,329
814.562256,333
814.68103,324
814.799683,324
814.918335,327
815.037109,345
815.155762,338
815.274475,327
815.393188,329
815.511841,324
815.630554,331
815.749146,333
815.867859,325
815.986572,338
816.105164,330
816.223877,319
816.342529,329
816.461182,346
816.579895,332
816.698486,344
816.817139,339
816.935791,346
817.054504,329
817.173096,337
817.291748,324
817.4104,337
817.529053,313
817.647644,327
817.766235,315
817.884949,319
818.00354,328
818.122192,331
818.240845,313
818.359436,333
818.478088,319
818.59668,334
818.715271,318
818.833923,330
818.952515,315
819.071106,330
819.189758,317
819.30835,315
819.426941,325
819.545532,317
819.664124,309
819.782715,323
819.901306,321
820.019897,327
820.138489,324
820.25708,324
820.375671,310
820.494202,324
820.612732,314
820.731384,307
820.849915,308
820.968506,327
821.087097,322
821.205627,335
821.324158,317
821.442749,332
821.561279,318
821.679871,315
821.798401,325
821.916931,320
822.035461,319
822.154053,317
822.272583,313
822.391174,315
822.509583,326
822.628174,315
822.746704,323
822.865234,312
822.983765,323
823.102295,314
823.220825,321
823.339294,323
823.457825,324
823.576355,325
823.694824,311
823.813354,310
823.931885,325
824.050354,321
824.168884,316
824.287354,317
824.405823,310
824.524353,331
824.642822,335
824.761353,313
824.879822,337
824.998291,323
825.116699,324
825.235291,318
825.353699,330
825.472168,321
825.590637,316
825.709106,317
825.827576,309
825.946045,319
826.064453,341
826.182983,318
826.301392,326
826.4198,310
826.53833,311
826.656738,335
826.775208,321
826.893677,326
827.012024,312
827.130493,320
827.248962,331
827.36731,312
827.485779,308
827.604248,317
827.722595,318
827.841064,310
827.959412,333
828.077942,302
828.196289,308
828.314636,322
828.433105,320
828.551514,314
828.669861,313
828.78833,315
828.906677,320
829.025085,307
829.143433,306
829.261841,319
829.38031,320
829.498657,334
829.617004,324
829.735413,315
829.85376,318
829.972107,317
830.090515,315
830.208862,310
830.327209,333
830.445557,311
830.563904,318
830.682312,317
830.800659,313
830.919006,321
831.037354,313
831.155701,315
831.274048,332
831.392395,328
831.51062,303
831.629028,311
831.747314,330
831.865662,323
831.984009,319
832.102356,325
832.220642,318
832.338928,326
832.457275,306
832.575623,318
832.693909,315
832.812134,323
832.930481,313
833.048828,321
833.167114,322
833.2854,307
833.403687,314
833.521973,321
833.640259,325
833.758545,327
833.876831,324
833.995056,315
834.113281,333
834.231628,319
834.349915,315
834.468201,314
834.586426,318
834.704651,320
834.822998,334
834.941162,316
835.059448,310
835.177673,330
835.295959,319
835.414246,323
835.53241,324
835.650635,329
835.768921,333
835.887146,314
836.005371,320
836.123596,314
836.241821,303
836.360046,319
836.478271,318
836.596497,320
836.714722,318
836.832886,334
836.95105,314
837.069336,322
837.1875,325
837.305725,322
837.423889,318
837.542053,327
837.660339,326
837.778503,322
837.896667,316
838.014832,311
838.132996,331
838.25116,307
838.369385,335
838.487488,324
838.605713,326
838.723877,321
838.84198,319
838.960205,323
839.078308,313
839.196472,325
839.314636,305
839.4328,311
839.550964,322
839.669067,301
839.787231,318
839.905396,318
840.023499,311
840.141602,330
840.259766,319
840.377869,325
840.495972,323
840.614136,315
840.732239,329
840.850342,316
840.968445,329
841.086548,324
841.204651,319
841.322754,323
841.440918,317
841.55896,312
841.677002,325
841.795166,332
841.913208,308
842.031311,329
842.149353,342
842.267456,320
842.385498,326
842.503601,329
842.621643,324
842.739746,315
842.857788,319
842.97583,302
843.093933,331
843.211975,315
843.330017,321
843.44812,328
843.566101,330
843.684204,317
843.802246,324
843.920227,297
844.038269,316
844.156311,313
844.274292,324
844.392395,309
844.510376,322
844.628357,325
844.74646,327
844.864441,300
844.982422,320
845.100403,313
845.218384,329
845.336426,318
845.454468,330
845.572449,326
845.69043,317
845.808411,327
845.926453,308
846.044373,332
846.162354,337
846.280396,323
846.398315,320
846.516296,325
846.634216,317
846.752197,327
846.870178,329
846.988098,319
847.106079,310
847.22406,325
847.34198,324
847.4599,308
847.577881,313
847.695801,328
847.813782,321
847.931641,319
848.049561,310
848.167603,327
848.285461,320
848.403381,325
848.521362,310
848.639221,310
848.75708,318
848.875,319
848.99292,314
849.110901,304
849.22876,326
849.34668,314
849.464539,320
849.582458,321
849.700317,310
849.818176,313
849.936096,316
850.053955,308
850.171875,319
850.289673,323
850.407593,321
850.525452,321
850.643311,315
850.761169,323
850.878967,329
850.996887,326
851.114746,310
851.232544,318
851.350403,309
851.468262,321
851.58606,313
851.703979,314
851.821777,326
851.939636,333
852.057434,323
852.175232,316
852.293091,323
852.410889,310
852.528687,338
852.646545,310
852.764343,322
852.88208,315
852.999939,303
853.117676,323
853.235535,316
853.353271,317
853.471069,317
853.588928,311
853.706604,332
853.824402,312
853.9422,307
854.059998,317
854.177734,319
854.295532,335
854.413269,319
854.531006,316
854.648804,322
854.766541,317
854.884277,321
855.002014,341
855.119751,313
855.237549,320
855.355225,331
855.473022,322
855.590698,328
855.708435,327
855.826172,326
855.943848,315
856.061646,322
856.179321,309
856.296997,321
856.414795,317
856.53241,322
856.650085,340
856.767822,327
856.885559,320
857.003174,321
857.120911,324
857.238586,337
857.356201,324
857.473938,312
857.591614,322
857.709351,318
857.826965,314
857.944641,332
858.062317,324
858.179993,318
858.297668,324
858.415283,327
858.532959,325
858.650574,325
858.768188,325
858.885803,316
859.003479,315
859.121094,322
859.23877,317
859.356384,334
859.473999,327
859.591675,323
859.709229,321
859.826843,318
859.944458,314
860.062012,311
860.179626,327
860.297302,306
860.414856,318
860.532471,320
860.650024,325
860.767639,317
860.885193,319
861.002808,320
861.120361,303
861.237976,314
861.35553,321
861.473022,312
861.590698,331
861.708191,329
861.825745,312
861.943298,325
862.060852,321
862.178406,323
862.295959,312
862.413513,319
862.531006,316
862.64856,324
862.766113,291
862.883667,320
863.00116,330
863.118713,329
863.236206,323
863.353699,308
863.471252,320
863.588745,325
863.706177,319
863.82373,308
863.941162,329
864.058716,316
864.176208,313
864.29364,324
864.411194,314
864.528687,314
864.646118,319
864.763611,306
864.881042,329
864.998535,318
865.116028,320
865.233459,335
865.350891,318
865.468384,339
865.585754,325
865.703308,319
865.820679,311
865.938171,323
866.055542,319
866.173035,327
866.290466,313
866.407837,327
866.52533,319
866.6427,311
866.760071,308
866.877563,326
866.994934,315
867.112305,318
867.229736,310
867.347107,334
867.464539,316
867.58197,323
867.699341,331
867.81665,320
867.934082,314
868.051453,335
868.168823,320
868.286194,317
868.403564,321
868.520935,312
868.638306,316
868.755676,320
868.872986,311
868.990295,321
869.107727,313
869.225037,305
869.342346,331
869.459717,319
869.577026,313
869.694336,333
869.811707,322
869.929016,325
870.046326,320
870.163635,314
870.280945,299
870.398254,328
870.515564,322
870.632812,303
870.750183,328
870.867432,329
870.984741,305
871.102051,316
871.219299,326
871.336609,329
871.453918,312
871.571106,321
871.688416,324
871.805664,324
871.922852,329
872.040222,312
872.157471,325
872.274719,324
872.391968,319
872.509155,329
872.626465,310
872.743652,323
872.860962,317
872.978149,313
873.095337,319
873.212646,323
873.329834,309
873.44696,320
873.564209,314
873.681396,318
873.798645,316
873.915894,320
874.03302,324
874.150208,319
874.267456,327
874.384583,331
874.501831,304
874.618958,322
874.736145,322
874.853333,331
874.970459,326
875.087646,305
875.204834,331
875.32196,328
875.439148,330
875.556274,326
875.673401,317
875.790527,324
875.907715,316
876.024841,318
876.141968,317
876.259094,332
876.376282,299
876.493347,322
876.610474,319
876.7276,309
876.844727,316
876.961853,321
877.078918,324
877.195984,327
877.313171,305
877.430237,316
877.547302,304
877.664368,319
877.781433,328
877.898499,316
878.015625,324
878.13269,313
878.249695,315
878.366821,336
878.483887,334
878.600952,318
878.717957,323
878.834961,321
878.952087,311
879.069092,324
879.186157,318
879.303162,318
879.420227,324
879.537231,324
879.654236,310
879.77124,314
879.888306,315
880.005249,317
880.122314,320
880.239319,321
880.356323,313
880.473328,323
880.590271,326
880.707275,327
880.824341,333
880.941284,316
881.058228,333
881.175232,336
881.292236,313
881.40918,317
881.526123,321
881.643066,317
881.760071,324
881.877014,331
881.993958,323
882.11084,309
882.227783,330
882.344727,332
882.46167,323
882.578613,316
882.695618,308
882.812439,324
882.929382,317
883.046326,332
883.163208,321
883.280151,313
883.397034,316
883.513916,309
883.630798,331
883.747742,319
883.864563,321
883.981506,315
884.098389,319
884.21521,313
884.332153,306
884.448975,326
884.565796,312
884.682678,322
884.7995,328
884.916443,322
885.033264,325
885.150085,317
885.266968,327
885.383789,318
885.500671,327
885.617493,310
885.734314,319
885.851196,320
885.967896,314
886.084717,334
886.201599,321
886.318359,317
886.435181,311
886.552002,315
886.668762,323
886.785645,326
886.902344,312
887.019165,332
887.135925,321
887.252747,310
887.369446,320
887.486267,324
887.603027,322
887.719788,315
887.836548,322
887.953247,313
888.070068,322
888.186829,318
888.303528,319
888.420288,313
888.536987,316
888.653687,325
888.770447,318
888.887146,312
889.003967,316
889.120667,298
889.237305,316
889.354065,323
889.470703,306
889.587463,334
889.704163,316
889.820862,323
889.937561,314
890.054199,324
890.170837,316
890.287598,317
890.404236,319
890.520874,319
890.637634,332
890.754211,325
890.87085,303
890.987549,300
891.104187,310
891.220886,319
891.337463,321
891.454102,320
891.57074,315
891.687378,308
891.804077,320
891.920654,305
892.037231,313
892.15387,320
892.270447,308
892.387085,332
892.503723,305
892.6203,314
892.736877,313
892.853516,330
892.970032,311
893.08667,313
893.203186,323
893.319763,331
893.43634,308
893.552917,312
893.669556,338
893.786011,316
893.902588,304
894.019165,333
894.135681,319
894.252197,326
894.368835,316
894.485291,309
894.601868,315
894.718384,329
894.8349,314
894.951355,320
895.067932,314
895.184448,309
895.300964,316
895.417419,315
895.533936,316
895.650452,325
895.766907,315
895.883423,323
895.999878,319
896.116333,327
896.232849,325
896.349304,316
896.465759,335
896.582214,323
896.698669,317
896.815125,316
896.931641,321
897.048035,323
897.164551,314
897.280884,328
897.397339,317
897.513794,313
897.630249,315
897.746582,315
897.863098,304
897.979431,319
898.095886,321
898.212341,317
898.328674,321
898.445129,316
898.561462,315
898.677795,318
898.794312,317
898.910645,319
899.026978,328
899.143433,325
899.259766,317
899.37616,326
899.492493,314
899.608765,319
899.725159,328
899.841553,312
899.957947,323
900.07428,321
900.190552,316
900.306946,329
900.423157,305
900.53949,323
900.655884,318
900.772156,320
900.888489,324
901.004822,303
901.121033,323
901.237366,325
901.353699,313
901.46991,322
901.586304,308
901.702515,308
901.818787,319
901.93512,315
902.051331,323
902.167603,324
902.283875,319
902.400085,324
902.516418,317
902.632629,330
902.74884,324
902.865112,321
902.981384,326
903.097595,326
903.213867,324
903.330017,321
903.446289,312
903.5625,324
903.67865,327
903.794922,329
903.911072,321
904.027344,330
904.143494,315
904.259705,315
904.375916,328
904.492065,334
904.608215,319
904.724426,316
904.840576,308
904.956726,309
905.072876,322
905.189087,322
905.305176,321
905.421387,315
905.537537,328
905.653687,334
905.769775,310
905.885925,310
906.002014,306
906.118164,322
906.234314,308
906.350403,321
906.466492,314
906.582642,317
906.69873,328
906.814758,333
906.930908,327
907.046936,314
907.163086,310
907.279175,331
907.395264,320
907.511353,321
907.62738,323
907.743408,314
907.859497,323
907.975525,330
908.091553,318
908.207703,317
908.32373,316
908.439758,321
908.555786,316
908.671814,323
908.787842,316
908.90387,314
909.019775,326
909.135864,326
909.251892,328
909.367859,320
909.483826,315
909.599854,323
909.715881,327
909.831848,317
909.947815,310
910.063782,311
910.179749,317
910.295776,314
910.411743,326
910.527649,315
910.643616,318
910.759583,308
910.875488,320
910.991455,328
911.107361,324
911.223267,315
911.339294,307
911.4552,335
911.571106,329
911.687073,313
911.802979,317
911.918823,326
912.034729,319
912.150635,313
912.266602,322
912.382446,336
912.498352,310
912.614197,317
912.730103,311
912.846008,311
