792.44574,325
792.56488,347
792.68396,391
792.80304,376
792.92218,334
793.041199,321
793.160339,319
793.279419,341
793.398499,322
793.517578,322
793.636658,315
793.755737,331
793.874817,345
793.993896,353
794.112976,337
794.232056,325
794.351074,326
794.470215,344
794.589233,322
794.708313,336
794.827393,325
794.946411,336
795.065552,334
795.18457,348
795.303589,337
795.422668,331
795.541687,339
795.660767,328
795.779846,335
795.898865,335
796.017883,334
796.136963,334
796.255981,345
796.375061,345
796.49408,337
796.613037,335
796.732117,322
796.851135,350
796.970154,344
797.089233,322
797.208191,320
797.327271,318
797.446228,324
797.565186,329
797.684265,335
797.803223,334
797.922241,326
798.04126,320
798.160278,328
798.279297,328
798.398315,348
798.517273,322
798.636292,323
798.75531,323
798.874268,327
798.993286,325
799.112244,335
799.231323,320
799.350281,325
799.469238,323
799.588257,331
799.707153,329
799.826111,321
799.945129,354
800.064087,332
800.183044,327
800.302063,334
800.421021,346
800.539978,325
800.658936,324
800.777893,327
800.896912,327
801.015747,325
801.134705,344
801.253723,321
801.37262,323
801.491638,337
801.610535,341
801.729492,343
801.84845,329
801.967407,333
802.086243,342
802.205261,329
802.324158,319
802.443115,323
802.562073,329
802.680969,321
802.799927,341
802.918762,330
803.037659,328
803.156677,332
803.275574,320
803.39447,317
803.513428,343
803.632263,339
803.751221,325
803.870117,323
803.989014,336
804.107971,323
804.226746,333
804.345642,343
804.4646,326
804.583496,323
804.702393,327
804.821228,344
804.940125,320
805.059021,332
805.177917,324
805.296814,326
805.415649,348
805.534546,317
805.653442,333
805.772278,344
805.891113,324
806.01001,309
806.128906,328
806.247742,343
806.366577,316
806.485413,336
806.604309,335
806.723145,335
806.84198,325
806.960876,322
807.079712,331
807.198486,336
807.317383,333
807.436218,326
807.554993,336
807.673889,345
807.792725,326
807.91156,322
808.030396,328
808.14917,334
808.268005,337
808.386841,321
808.505676,327
808.624451,324
808.743286,344
808.862122,329
808.980896,345
809.099731,333
809.218506,331
809.337341,324
809.456116,339
809.57489,325
809.693726,327
809.8125,332
809.931274,334
810.050049,329
810.168884,336
810.287659,357
810.406372,332
810.525269,333
810.643982,345
810.762756,313
810.881531,348
811.000305,327
811.11908,340
811.237854,344
811.356567,339
811.475403,331
811.594116,312
811.71283,335
811.831604,331
811.950378,320
812.069153,333
812.187927,316
812.30658,336
812.425415,336
812.544128,327
812.662781,347
812.781616,325
812.900269,340
813.019043,328
813.137756,325
813.256531,337
813.375244,340
813.493896,324
813.612671,329
813.731384,339
813.850037,331
813.96875,334
814.087524,333
814.206238,326
814.324951,331
814.443604,322
814.562256,326
814.68103,331
814.799683,322
814.918335,349
815.037109,330
815.155762,332
815.274475,320
815.393188,328
815.511841,331
815.630554,342
815.749146,342
815.867859,328
815.986572,330
816.105164,326
816.223877,327
816.342529,344
816.461182,343
816.579895,343
816.698486,334
816.817139,331
816.935791,325
817.054504,325
817.173096,339
817.291748,351
817.4104,322
817.529053,345
817.647644,318
817.766235,346
817.884949,322
818.00354,327
818.122192,330
818.240845,328
818.359436,331
818.478088,340
818.59668,325
818.715271,318
818.833923,321
818.952515,329
819.071106,316
819.189758,318
819.30835,321
819.426941,339
819.545532,309
819.664124,330
819.782715,324
819.901306,322
820.019897,326
820.138489,324
820.25708,316
820.375671,327
820.494202,327
820.612732,316
820.731384,314
820.849915,329
820.968506,344
821.087097,327
821.205627,332
821.324158,316
821.442749,305
821.561279,324
821.679871,332
821.798401,325
821.916931,324
822.035461,320
822.154053,327
822.272583,332
822.391174,316
822.509583,318
822.628174,320
822.746704,318
822.865234,317
822.983765,304
823.102295,322
823.220825,310
823.339294,326
823.457825,323
823.576355,327
823.694824,317
823.813354,329
823.931885,311
824.050354,332
824.168884,318
824.287354,325
824.405823,319
824.524353,329
824.642822,326
824.761353,310
824.879822,313
824.998291,324
825.116699,329
825.235291,325
825.353699,318
825.472168,333
825.590637,319
825.709106,309
825.827576,320
825.946045,305
826.064453,331
826.182983,316
826.301392,324
826.4198,314
826.53833,323
826.656738,325
826.775208,322
826.893677,323
827.012024,318
827.130493,313
827.248962,314
827.36731,317
827.485779,325
827.604248,318
827.722595,331
827.841064,320
827.959412,327
828.077942,314
828.196289,318
828.314636,315
828.433105,323
828.551514,322
828.669861,326
828.78833,311
828.906677,313
829.025085,318
829.143433,317
829.261841,314
829.38031,313
829.498657,301
829.617004,332
829.735413,308
829.85376,320
829.972107,309
830.090515,329
830.208862,314
830.327209,316
830.445557,316
830.563904,317
830.682312,322
830.800659,322
830.919006,327
831.037354,326
831.155701,315
831.274048,308
831.392395,306
831.51062,336
831.629028,321
831.747314,323
831.865662,302
831.984009,306
832.102356,326
832.220642,328
832.338928,297
832.457275,311
832.575623,326
832.693909,326
832.812134,328
832.930481,324
833.048828,320
833.167114,323
833.2854,318
833.403687,317
833.521973,305
833.640259,311
833.758545,313
833.876831,311
833.995056,321
834.113281,322
834.231628,322
834.349915,321
834.468201,328
834.586426,317
834.704651,310
834.822998,312
834.941162,337
835.059448,313
835.177673,308
835.295959,322
835.414246,325
835.53241,334
835.650635,323
835.768921,293
835.887146,321
836.005371,322
836.123596,324
836.241821,324
836.360046,322
836.478271,322
836.596497,324
836.714722,300
836.832886,319
836.95105,327
837.069336,323
837.1875,319
837.305725,318
837.423889,325
837.542053,298
837.660339,322
837.778503,325
837.896667,328
838.014832,324
838.132996,323
838.25116,310
838.369385,326
838.487488,323
838.605713,333
838.723877,330
838.84198,317
838.960205,319
839.078308,329
839.196472,323
839.314636,318
839.4328,312
839.550964,316
839.669067,314
839.787231,311
839.905396,303
840.023499,335
840.141602,326
840.259766,329
840.377869,323
840.495972,312
840.614136,311
840.732239,314
840.850342,325
840.968445,322
841.086548,326
841.204651,320
841.322754,306
841.440918,320
841.55896,313
841.677002,321
841.795166,325
841.913208,318
842.031311,311
842.149353,321
842.267456,310
842.385498,332
842.503601,314
842.621643,332
842.739746,323
842.857788,314
842.97583,320
843.093933,320
843.211975,325
843.330017,316
843.44812,314
843.566101,323
843.684204,324
843.802246,316
843.920227,331
844.038269,316
844.156311,323
844.274292,306
844.392395,319
844.510376,323
844.628357,309
844.74646,317
844.864441,319
844.982422,333
845.100403,320
845.218384,324
845.336426,303
845.454468,314
845.572449,323
845.69043,313
845.808411,323
845.926453,317
846.044373,309
846.162354,321
846.280396,314
846.398315,319
846.516296,323
846.634216,326
846.752197,320
846.870178,328
846.988098,312
847.106079,306
847.22406,324
847.34198,301
847.4599,328
847.577881,326
847.695801,314
847.813782,314
847.931641,324
848.049561,332
848.167603,301
848.285461,321
848.403381,312
848.521362,312
848.639221,310
848.75708,309
848.875,322
848.99292,320
849.110901,309
849.22876,315
849.34668,330
849.464539,314
849.582458,319
849.700317,324
849.818176,323
849.936096,322
850.053955,321
850.171875,309
850.289673,310
850.407593,310
850.525452,323
850.643311,320
850.761169,311
850.878967,318
850.996887,317
851.114746,317
851.232544,315
851.350403,324
851.468262,334
851.58606,331
851.703979,313
851.821777,329
851.939636,317
852.057434,324
852.175232,315
852.293091,323
852.410889,323
852.528687,325
852.646545,323
852.764343,308
852.88208,320
852.999939,323
853.117676,314
853.235535,331
853.353271,322
853.471069,311
853.588928,330
853.706604,313
853.824402,312
853.9422,304
854.059998,304
854.177734,312
854.295532,328
854.413269,322
854.531006,307
854.648804,311
854.766541,311
854.884277,313
855.002014,319
855.119751,317
855.237549,319
855.355225,321
855.473022,318
855.590698,326
855.708435,318
855.826172,309
855.943848,301
856.061646,316
856.179321,314
856.296997,312
856.414795,323
856.53241,329
856.650085,317
856.767822,307
856.885559,314
857.003174,325
857.120911,318
857.238586,320
857.356201,322
857.473938,314
857.591614,320
857.709351,319
857.826965,317
857.944641,319
858.062317,331
858.179993,322
858.297668,327
858.415283,316
858.532959,310
858.650574,317
858.768188,295
858.885803,311
859.003479,317
859.121094,326
859.23877,305
859.356384,318
859.473999,315
859.591675,308
859.709229,320
859.826843,322
859.944458,306
860.062012,313
860.179626,310
860.297302,315
860.414856,314
860.532471,311
860.650024,309
860.767639,311
860.885193,317
861.002808,325
861.120361,310
861.237976,313
861.35553,306
861.473022,316
861.590698,318
861.708191,307
861.825745,328
861.943298,323
862.060852,315
862.178406,314
862.295959,328
862.413513,308
862.531006,315
862.64856,316
862.766113,308
862.883667,320
863.00116,320
863.118713,316
863.236206,329
863.353699,317
863.471252,315
863.588745,312
863.706177,320
863.82373,330
863.941162,315
864.058716,311
864.176208,317
864.29364,321
864.411194,312
864.528687,328
864.646118,323
864.763611,324
864.881042,319
864.998535,323
865.116028,332
865.233459,325
865.350891,321
865.468384,332
865.585754,323
865.703308,313
865.820679,316
865.938171,319
866.055542,317
866.173035,313
866.290466,323
866.407837,310
866.52533,312
866.6427,327
866.760071,317
866.877563,319
866.994934,319
867.112305,327
867.229736,319
867.347107,324
867.464539,320
867.58197,326
867.699341,314
867.81665,319
867.934082,328
868.051453,324
868.168823,333
868.286194,323
868.403564,304
868.520935,325
868.638306,311
868.755676,313
868.872986,331
868.990295,322
869.107727,325
869.225037,316
869.342346,312
869.459717,326
869.577026,305
869.694336,325
869.811707,327
869.929016,334
870.046326,320
870.163635,309
870.280945,330
870.398254,318
870.515564,327
870.632812,312
870.750183,304
870.867432,334
870.984741,322
871.102051,325
871.219299,324
871.336609,319
871.453918,320
871.571106,322
871.688416,313
871.805664,331
871.922852,310
872.040222,312
872.157471,317
872.274719,305
872.391968,321
872.509155,311
872.626465,314
872.743652,340
872.860962,326
872.978149,319
873.095337,325
873.212646,325
873.329834,318
873.44696,322
873.564209,319
873.681396,312
873.798645,327
873.915894,313
874.03302,327
874.150208,326
874.267456,309
874.384583,339
874.501831,316
874.618958,326
874.736145,315
874.853333,322
874.970459,313
875.087646,332
875.204834,329
875.32196,316
875.439148,303
875.556274,313
875.673401,318
875.790527,323
875.907715,309
876.024841,326
876.141968,316
876.259094,326
876.376282,310
876.493347,308
876.610474,336
876.7276,323
876.844727,315
876.961853,331
877.078918,313
877.195984,322
877.313171,316
877.430237,322
877.547302,325
877.664368,328
877.781433,328
877.898499,317
878.015625,313
878.13269,313
878.249695,319
878.366821,325
878.483887,325
878.600952,319
878.717957,311
878.834961,318
878.952087,310
879.069092,318
879.186157,307
879.303162,317
879.420227,331
879.537231,319
879.654236,324
879.77124,315
879.888306,313
880.005249,313
880.122314,316
880.239319,310
880.356323,320
880.473328,322
880.590271,318
880.707275,321
880.824341,314
880.941284,307
881.058228,324
881.175232,312
881.292236,320
881.40918,329
881.526123,295
881.643066,332
881.760071,303
881.877014,328
881.993958,312
882.11084,313
882.227783,321
882.344727,323
882.46167,311
882.578613,316
882.695618,329
882.812439,316
882.929382,321
883.046326,330
883.163208,317
883.280151,324
883.397034,324
883.513916,304
883.630798,313
883.747742,330
883.864563,304
883.981506,308
884.098389,317
884.21521,324
884.332153,315
884.448975,332
884.565796,331
884.682678,314
884.7995,321
884.916443,314
885.033264,318
885.150085,317
885.266968,330
885.383789,329
885.500671,334
885.617493,317
885.734314,309
885.851196,310
885.967896,320
886.084717,324
886.201599,310
886.318359,321
886.435181,313
886.552002,337
886.668762,325
886.785645,320
886.902344,334
887.019165,323
887.135925,307
887.252747,322
887.369446,332
887.486267,325
887.603027,340
887.719788,320
887.836548,330
887.953247,326
888.070068,315
888.186829,323
888.303528,313
888.420288,323
888.536987,307
888.653687,315
888.770447,319
888.887146,316
889.003967,333
889.120667,321
889.237305,312
889.354065,322
889.470703,323
889.587463,324
889.704163,315
889.820862,312
889.937561,315
890.054199,316
890.170837,327
890.287598,338
890.404236,314
890.520874,321
890.637634,320
890.754211,320
890.87085,314
890.987549,322
891.104187,327
891.220886,324
891.337463,315
891.454102,326
891.57074,319
891.687378,322
891.804077,324
891.920654,319
892.037231,319
892.15387,333
892.270447,320
892.387085,334
892.503723,310
892.6203,334
892.736877,325
892.853516,320
892.970032,313
893.08667,321
893.203186,322
893.319763,329
893.43634,311
893.552917,333
893.669556,318
893.786011,325
893.902588,312
894.019165,316
894.135681,327
894.252197,328
894.368835,320
894.485291,324
894.601868,309
894.718384,316
894.8349,329
894.951355,325
895.067932,320
895.184448,321
895.300964,308
895.417419,325
895.533936,314
895.650452,309
895.766907,322
895.883423,322
895.999878,320
896.116333,331
896.232849,318
896.349304,332
896.465759,313
896.582214,331
896.698669,321
896.815125,323
896.931641,336
897.048035,326
897.164551,316
897.280884,315
897.397339,308
897.513794,317
897.630249,310
897.746582,322
897.863098,308
897.979431,313
898.095886,319
898.212341,317
898.328674,322
898.445129,320
898.561462,329
898.677795,325
898.794312,317
898.910645,324
899.026978,317
899.143433,319
899.259766,308
899.37616,313
899.492493,319
899.608765,330
899.725159,319
899.841553,326
899.957947,314
900.07428,326
900.190552,313
900.306946,315
900.423157,323
900.53949,322
900.655884,321
900.772156,333
900.888489,314
901.004822,316
901.121033,320
901.237366,322
901.353699,324
901.46991,329
901.586304,326
901.702515,322
901.818787,310
901.93512,320
902.051331,311
902.167603,337
902.283875,313
902.400085,333
902.516418,316
902.632629,315
902.74884,322
902.865112,321
902.981384,316
903.097595,341
903.213867,312
903.330017,334
903.446289,319
903.5625,325
903.67865,333
903.794922,318
903.911072,328
904.027344,332
904.143494,320
904.259705,318
904.375916,313
904.492065,324
904.608215,319
904.724426,323
904.840576,328
904.956726,308
905.072876,328
905.189087,320
905.305176,329
905.421387,316
905.537537,321
905.653687,317
905.769775,315
905.885925,343
906.002014,318
906.118164,323
906.234314,324
906.350403,321
906.466492,325
906.582642,320
906.69873,327
906.814758,307
906.930908,318
907.046936,335
907.163086,320
907.279175,326
907.395264,326
907.511353,317
907.62738,322
907.743408,319
907.859497,326
907.975525,301
908.091553,310
908.207703,338
908.32373,313
908.439758,321
908.555786,325
908.671814,322
908.787842,322
908.90387,335
909.019775,326
909.135864,330
909.251892,327
909.367859,324
909.483826,317
909.599854,337
909.715881,309
909.831848,315
909.947815,323
910.063782,340
910.179749,318
910.295776,328
910.411743,320
910.527649,328
910.643616,336
910.759583,328
910.875488,311
910.991455,330
911.107361,317
911.223267,334
911.339294,318
911.4552,330
911.571106,314
911.687073,323
911.802979,341
911.918823,316
912.034729,322
912.150635,317
912.266602,323
912.382446,327
912.498352,329
912.614197,317
912.730103,315
912.846008,318
792.44574,313
792.56488,357
792.68396,402
792.80304,372
792.92218,340
793.041199,302
793.160339,334
793.279419,328
793.398499,333
793.517578,326
793.636658,312
793.755737,338
793.874817,347
793.993896,344
794.112976,321
794.232056,328
794.351074,339
794.470215,329
794.589233,337
794.708313,338
794.827393,320
794.946411,345
795.065552,327
795.18457,326
795.303589,338
795.422668,321
795.541687,331
795.660767,339
795.779846,335
795.898865,316
796.017883,329
796.136963,323
796.255981,320
796.375061,325
796.49408,337
796.613037,327
796.732117,321
796.851135,334
796.970154,324
797.089233,331
797.208191,332
797.327271,338
797.446228,322
797.565186,333
797.684265,336
797.803223,319
797.922241,350
798.04126,333
798.160278,313
798.279297,335
798.398315,325
798.517273,330
798.636292,332
798.75531,329
798.874268,320
798.993286,321
799.112244,333
799.231323,322
799.350281,331
799.469238,323
799.588257,336
799.707153,321
799.826111,329
799.945129,329
800.064087,321
800.183044,325
800.302063,333
800.421021,321
800.539978,320
800.658936,317
800.777893,318
800.896912,348
801.015747,325
801.134705,320
801.253723,337
801.37262,345
801.491638,337
801.610535,331
801.729492,327
801.84845,327
801.967407,341
802.086243,329
802.205261,333
802.324158,326
802.443115,325
802.562073,325
802.680969,328
802.799927,344
802.918762,330
803.037659,325
803.156677,333
803.275574,327
803.39447,336
803.513428,318
803.632263,343
803.751221,329
803.870117,342
803.989014,320
804.107971,334
804.226746,328
804.345642,340
804.4646,330
804.583496,347
804.702393,313
804.821228,329
804.940125,336
805.059021,337
805.177917,331
805.296814,340
805.415649,332
805.534546,334
805.653442,337
805.772278,339
805.891113,328
806.01001,336
806.128906,323
806.247742,324
806.366577,338
806.485413,326
806.604309,351
806.723145,334
806.84198,317
806.960876,334
807.079712,331
807.198486,324
807.317383,340
807.436218,335
807.554993,339
807.673889,331
807.792725,333
807.91156,326
808.030396,328
808.14917,332
808.268005,325
808.386841,332
808.505676,320
808.624451,347
808.743286,330
808.862122,325
808.980896,341
809.099731,321
809.218506,322
809.337341,335
809.456116,336
809.57489,333
809.693726,334
809.8125,332
809.931274,339
810.050049,339
810.168884,329
810.287659,344
810.406372,334
810.525269,323
810.643982,330
810.762756,337
810.881531,329
811.000305,332
811.11908,332
811.237854,326
811.356567,332
811.475403,330
811.594116,341
811.71283,341
811.831604,322
811.950378,345
812.069153,323
812.187927,330
812.30658,326
812.425415,326
812.544128,345
812.662781,329
812.781616,335
812.900269,341
813.019043,331
813.137756,339
813.256531,327
813.375244,351
813.493896,343
813.612671,353
813.731384,326
813.850037,324
813.96875,338
814.087524,331
814.206238,327
814.324951,336
814.443604,326
814.562256,353
814.68103,325
814.799683,343
814.918335,336
815.037109,336
815.155762,324
815.274475,336
815.393188,352
815.511841,332
815.630554,346
815.749146,328
815.867859,336
815.986572,341
816.105164,317
816.223877,346
816.342529,325
816.461182,334
816.579895,325
816.698486,327
816.817139,325
816.935791,326
817.054504,339
817.173096,320
817.291748,334
817.4104,326
817.529053,330
817.647644,326
817.766235,320
817.884949,345
818.00354,327
818.122192,318
818.240845,331
818.359436,328
818.478088,336
818.59668,329
818.715271,335
818.833923,326
818.952515,325
819.071106,324
819.189758,317
819.30835,319
819.426941,323
819.545532,319
819.664124,324
819.782715,311
819.901306,325
820.019897,318
820.138489,317
820.25708,321
820.375671,323
820.494202,320
820.612732,336
820.731384,320
820.849915,320
820.968506,326
821.087097,313
821.205627,324
821.324158,307
821.442749,323
821.561279,303
821.679871,329
821.798401,311
821.916931,320
822.035461,310
822.154053,316
822.272583,320
822.391174,311
822.509583,310
822.628174,321
822.746704,324
822.865234,330
822.983765,316
823.102295,318
823.220825,318
823.339294,307
823.457825,327
823.576355,311
823.694824,322
823.813354,335
823.931885,333
824.050354,316
824.168884,322
824.287354,321
824.405823,315
824.524353,332
824.642822,325
824.761353,325
824.879822,322
824.998291,332
825.116699,318
825.235291,319
825.353699,327
825.472168,323
825.590637,329
825.709106,322
825.827576,327
825.946045,329
826.064453,303
826.182983,304
826.301392,318
826.4198,317
826.53833,326
826.656738,300
826.775208,311
826.893677,312
827.012024,321
827.130493,314
827.248962,311
827.36731,319
827.485779,307
827.604248,310
827.722595,311
827.841064,303
827.959412,315
828.077942,335
828.196289,298
828.314636,328
828.433105,325
828.551514,319
828.669861,329
828.78833,308
828.906677,317
829.025085,315
829.143433,318
829.261841,322
829.38031,319
829.498657,327
829.617004,295
829.735413,307
829.85376,322
829.972107,317
830.090515,320
830.208862,302
830.327209,317
830.445557,313
830.563904,311
830.682312,326
830.800659,307
830.919006,330
831.037354,309
831.155701,303
831.274048,316
831.392395,332
831.51062,318
831.629028,314
831.747314,327
831.865662,321
831.984009,319
832.102356,317
832.220642,307
832.338928,313
832.457275,317
832.575623,300
832.693909,324
832.812134,322
832.930481,321
833.048828,311
833.167114,318
833.2854,324
833.403687,317
833.521973,317
833.640259,309
833.758545,309
833.876831,301
833.995056,327
834.113281,320
834.231628,329
834.349915,321
834.468201,322
834.586426,309
834.704651,314
834.822998,313
834.941162,312
835.059448,319
835.177673,311
835.295959,307
835.414246,326
835.53241,307
835.650635,311
835.768921,320
835.887146,322
836.005371,301
836.123596,317
836.241821,316
836.360046,321
836.478271,311
836.596497,311
836.714722,310
836.832886,318
836.95105,306
837.069336,337
837.1875,316
837.305725,316
837.423889,322
837.542053,313
837.660339,312
837.778503,321
837.896667,320
838.014832,324
838.132996,322
838.25116,327
838.369385,320
838.487488,337
838.605713,304
838.723877,315
838.84198,320
838.960205,317
839.078308,304
839.196472,330
839.314636,319
839.4328,324
839.550964,321
839.669067,323
839.787231,324
839.905396,332
840.023499,332
840.141602,319
840.259766,322
840.377869,337
840.495972,313
840.614136,321
840.732239,318
840.850342,322
840.968445,314
841.086548,323
841.204651,310
841.322754,313
841.440918,318
841.55896,329
841.677002,316
841.795166,317
841.913208,320
842.031311,310
842.149353,317
842.267456,316
842.385498,316
842.503601,321
842.621643,315
842.739746,321
842.857788,329
842.97583,310
843.093933,315
843.211975,323
843.330017,303
843.44812,315
843.566101,307
843.684204,318
843.802246,313
843.920227,328
844.038269,302
844.156311,308
844.274292,323
844.392395,310
844.510376,316
844.628357,329
844.74646,320
844.864441,318
844.982422,299
845.100403,328
845.218384,320
845.336426,306
845.454468,315
845.572449,321
845.69043,321
845.808411,333
845.926453,323
846.044373,310
846.162354,313
846.280396,326
846.398315,312
846.516296,327
846.634216,319
846.752197,318
846.870178,318
846.988098,312
847.106079,318
847.22406,314
847.34198,312
847.4599,325
847.577881,294
847.695801,312
847.813782,321
847.931641,330
848.049561,320
848.167603,318
848.285461,318
848.403381,321
848.521362,312
848.639221,323
848.75708,314
848.875,312
848.99292,305
849.110901,301
849.22876,328
849.34668,327
849.464539,317
849.582458,312
849.700317,331
849.818176,321
849.936096,300
850.053955,303
850.171875,322
850.289673,326
850.407593,320
850.525452,328
850.643311,309
850.761169,315
850.878967,319
850.996887,329
851.114746,313
851.232544,320
851.350403,289
851.468262,331
851.58606,311
851.703979,317
851.821777,308
851.939636,316
852.057434,316
852.175232,329
852.293091,326
852.410889,326
852.528687,319
852.646545,311
852.764343,313
852.88208,315
852.999939,312
853.117676,319
853.235535,306
853.353271,317
853.471069,327
853.588928,317
853.706604,321
853.824402,310
853.9422,320
854.059998,318
854.177734,315
854.295532,329
854.413269,316
854.531006,319
854.648804,321
854.766541,317
854.884277,314
855.002014,319
855.119751,312
855.237549,314
855.355225,315
855.473022,330
855.590698,315
855.708435,310
855.826172,314
855.943848,316
856.061646,317
856.179321,305
856.296997,321
856.414795,319
856.53241,326
856.650085,315
856.767822,323
856.885559,340
857.003174,316
857.120911,315
857.238586,324
857.356201,323
857.473938,311
857.591614,321
857.709351,318
857.826965,311
857.944641,307
858.062317,313
858.179993,314
858.297668,317
858.415283,320
858.532959,327
858.650574,318
858.768188,315
858.885803,313
859.003479,313
859.121094,306
859.23877,316
859.356384,315
859.473999,316
859.591675,317
859.709229,318
859.826843,310
859.944458,319
860.062012,307
860.179626,312
860.297302,328
860.414856,314
860.532471,321
860.650024,311
860.767639,317
860.885193,311
861.002808,313
861.120361,329
861.237976,317
861.35553,324
861.473022,307
861.590698,321
861.708191,320
861.825745,314
861.943298,325
862.060852,305
862.178406,323
862.295959,323
862.413513,315
862.531006,326
862.64856,319
862.766113,319
862.883667,327
863.00116,322
863.118713,310
863.236206,322
863.353699,309
863.471252,324
863.588745,304
863.706177,330
863.82373,323
863.941162,318
864.058716,317
864.176208,315
864.29364,322
864.411194,322
864.528687,321
864.646118,326
864.763611,320
864.881042,320
864.998535,325
865.116028,326
865.233459,327
865.350891,304
865.468384,307
865.585754,319
865.703308,321
865.820679,310
865.938171,317
866.055542,318
866.173035,312
866.290466,325
866.407837,299
866.52533,313
866.6427,319
866.760071,315
866.877563,306
866.994934,331
867.112305,321
867.229736,318
867.347107,326
867.464539,322
867.58197,318
867.699341,321
867.81665,309
867.934082,318
868.051453,317
868.168823,311
868.286194,309
868.403564,322
868.520935,333
868.638306,337
868.755676,323
868.872986,312
868.990295,315
869.107727,323
869.225037,322
869.342346,315
869.459717,314
869.577026,327
869.694336,319
869.811707,314
869.929016,313
870.046326,320
870.163635,321
870.280945,327
870.398254,315
870.515564,316
870.632812,311
870.750183,321
870.867432,314
870.984741,318
871.102051,313
871.219299,335
871.336609,314
871.453918,344
871.571106,313
871.688416,314
871.805664,309
871.922852,320
872.040222,309
872.157471,337
872.274719,327
872.391968,312
872.509155,314
872.626465,317
872.743652,312
872.860962,320
872.978149,306
873.095337,324
873.212646,316
873.329834,328
873.44696,316
873.564209,315
873.681396,320
873.798645,325
873.915894,322
874.03302,333
874.150208,317
874.267456,328
874.384583,316
874.501831,329
874.618958,330
874.736145,324
874.853333,326
874.970459,314
875.087646,306
875.204834,323
875.32196,323
875.439148,316
875.556274,313
875.673401,328
875.790527,313
875.907715,310
876.024841,307
876.141968,315
876.259094,312
876.376282,331
876.493347,306
876.610474,313
876.7276,321
876.844727,328
876.961853,308
877.078918,304
877.195984,320
877.313171,323
877.430237,316
877.547302,313
877.664368,323
877.781433,319
877.898499,307
878.015625,324
878.13269,302
878.249695,316
878.366821,322
878.483887,322
878.600952,329
878.717957,327
878.834961,322
878.952087,328
879.069092,309
879.186157,321
879.303162,315
879.420227,325
879.537231,327
879.654236,316
879.77124,317
879.888306,321
880.005249,320
880.122314,327
880.239319,314
880.356323,321
880.473328,319
880.590271,327
880.707275,328
880.824341,322
880.941284,327
881.058228,337
881.175232,310
881.292236,325
881.40918,328
881.526123,315
881.643066,310
881.760071,306
881.877014,313
881.993958,323
882.11084,320
882.227783,319
882.344727,323
882.46167,323
882.578613,299
882.695618,315
882.812439,318
882.929382,321
883.046326,315
883.163208,318
883.280151,306
883.397034,319
883.513916,303
883.630798,312
883.747742,312
883.864563,320
883.981506,305
884.098389,326
884.21521,328
884.332153,331
884.448975,323
884.565796,318
884.682678,318
884.7995,320
884.916443,316
885.033264,322
885.150085,307
885.266968,316
885.383789,318
885.500671,327
885.617493,306
885.734314,326
885.851196,321
885.967896,314
886.084717,310
886.201599,340
886.318359,312
886.435181,319
886.552002,302
886.668762,327
886.785645,325
886.902344,322
887.019165,331
887.135925,321
887.252747,321
887.369446,330
887.486267,314
887.603027,302
887.719788,314
887.836548,313
887.953247,317
888.070068,325
888.186829,318
888.303528,331
888.420288,325
888.536987,319
888.653687,317
888.770447,320
888.887146,317
889.003967,329
889.120667,318
889.237305,320
889.354065,328
889.470703,326
889.587463,315
889.704163,335
889.820862,323
889.937561,316
890.054199,316
890.170837,317
890.287598,324
890.404236,313
890.520874,318
890.637634,314
890.754211,293
890.87085,332
890.987549,318
891.104187,319
891.220886,311
891.337463,323
891.454102,318
891.57074,318
891.687378,312
891.804077,325
891.920654,304
892.037231,325
892.15387,324
892.270447,317
892.387085,323
892.503723,326
892.6203,330
892.736877,323
892.853516,314
892.970032,322
893.08667,317
893.203186,304
893.319763,306
893.43634,313
893.552917,319
893.669556,326
893.786011,336
893.902588,316
894.019165,314
894.135681,320
894.252197,311
894.368835,325
894.485291,327
894.601868,318
894.718384,316
894.8349,319
894.951355,287
895.067932,321
895.184448,321
895.300964,320
895.417419,332
895.533936,317
895.650452,306
895.766907,328
895.883423,319
895.999878,323
896.116333,329
896.232849,321
896.349304,324
896.465759,330
896.582214,313
896.698669,317
896.815125,317
896.931641,317
897.048035,313
897.164551,314
897.280884,320
897.397339,314
897.513794,310
897.630249,323
897.746582,324
897.863098,335
897.979431,318
898.095886,320
898.212341,328
898.328674,308
898.445129,315
898.561462,331
898.677795,325
898.794312,335
898.910645,305
899.026978,327
899.143433,310
899.259766,310
899.37616,317
899.492493,319
899.608765,328
899.725159,309
899.841553,336
899.957947,318
900.07428,311
900.190552,326
900.306946,334
900.423157,319
900.53949,311
900.655884,309
900.772156,310
900.888489,317
901.004822,320
901.121033,324
901.237366,307
901.353699,319
901.46991,319
901.586304,325
901.702515,311
901.818787,324
901.93512,306
902.051331,332
902.167603,317
902.283875,322
902.400085,323
902.516418,322
902.632629,325
902.74884,326
902.865112,310
902.981384,320
903.097595,330
903.213867,332
903.330017,303
903.446289,323
903.5625,325
903.67865,328
903.794922,325
903.911072,313
904.027344,316
904.143494,322
904.259705,312
904.375916,320
904.492065,309
904.608215,327
904.724426,323
904.840576,323
904.956726,316
905.072876,320
905.189087,321
905.305176,317
905.421387,321
905.537537,332
905.653687,316
905.769775,325
905.885925,325
906.002014,314
906.118164,322
906.234314,329
906.350403,332
906.466492,317
906.582642,311
906.69873,333
906.814758,314
906.930908,327
907.046936,314
907.163086,332
907.279175,310
907.395264,328
907.511353,318
907.62738,331
907.743408,317
907.859497,316
907.975525,309
908.091553,321
908.207703,314
908.32373,322
908.439758,324
908.555786,320
908.671814,324
908.787842,310
908.90387,315
909.019775,323
909.135864,315
909.251892,327
909.367859,304
909.483826,333
909.599854,316
909.715881,322
909.831848,324
909.947815,325
910.063782,332
910.179749,333
910.295776,314
910.411743,323
910.527649,323
910.643616,325
910.759583,318
910.875488,328
910.991455,328
911.107361,322
911.223267,310
911.339294,326
911.4552,309
911.571106,331
911.687073,305
911.802979,330
911.918823,316
912.034729,315
912.150635,326
912.266602,321
912.382446,315
912.498352,324
912.614197,322
912.730103,316
912.846008,312
792.44574,317
792.56488,352
792.68396,398
792.80304,371
792.92218,342
793.041199,326
793.160339,305
793.279419,331
793.398499,342
793.517578,323
793.636658,323
793.755737,329
793.874817,335
793.993896,355
794.112976,326
794.232056,333
794.351074,321
794.470215,342
794.589233,333
794.708313,322
794.827393,341
794.946411,331
795.065552,339
795.18457,339
795.303589,335
795.422668,329
795.541687,326
795.660767,337
795.779846,333
795.898865,341
796.017883,340
796.136963,336
796.255981,331
796.375061,330
796.49408,329
796.613037,328
796.732117,337
796.851135,322
796.970154,327
797.089233,330
797.208191,332
797.327271,316
797.446228,333
797.565186,326
797.684265,338
797.803223,327
797.922241,346
798.04126,324
798.160278,320
798.279297,334
798.398315,334
798.517273,325
798.636292,332
798.75531,339
798.874268,325
798.993286,333
799.112244,324
799.231323,315
799.350281,337
799.469238,344
799.588257,332
799.707153,327
799.826111,335
799.945129,328
800.064087,339
800.183044,324
800.302063,348
800.421021,321
800.539978,328
800.658936,320
800.777893,315
800.896912,319
801.015747,332
801.134705,318
801.253723,330
801.37262,339
801.491638,321
801.610535,323
801.729492,307
801.84845,328
801.967407,340
802.086243,340
802.205261,344
802.324158,320
802.443115,326
802.562073,328
802.680969,341
802.799927,332
802.918762,322
803.037659,338
803.156677,337
803.275574,334
803.39447,336
803.513428,330
803.632263,338
803.751221,337
803.870117,326
803.989014,326
804.107971,328
804.226746,327
804.345642,337
804.4646,323
804.583496,335
804.702393,335
804.821228,329
804.940125,331
805.059021,336
805.177917,334
805.296814,328
805.415649,336
805.534546,333
805.653442,335
805.772278,324
805.891113,327
806.01001,332
806.128906,333
806.247742,340
806.366577,343
806.485413,337
806.604309,340
806.723145,327
806.84198,329
806.960876,327
807.079712,334
807.198486,334
807.317383,328
807.436218,332
807.554993,329
807.673889,325
807.792725,334
807.91156,335
808.030396,331
808.14917,338
808.268005,355
808.386841,334
808.505676,327
808.624451,331
808.743286,325
808.862122,336
808.980896,338
809.099731,341
809.218506,331
809.337341,329
809.456116,327
809.57489,329
809.693726,340
809.8125,335
809.931274,333
810.050049,332
810.168884,320
810.287659,340
810.406372,310
810.525269,335
810.643982,332
810.762756,337
810.881531,330
811.000305,335
811.11908,326
811.237854,333
811.356567,327
811.475403,336
811.594116,329
811.71283,336
811.831604,327
811.950378,339
812.069153,350
812.187927,330
812.30658,330
812.425415,348
812.544128,340
812.662781,336
812.781616,342
812.900269,327
813.019043,319
813.137756,328
813.256531,351
813.375244,342
813.493896,317
813.612671,325
813.731384,342
813.850037,341
813.96875,333
814.087524,324
814.206238,340
814.324951,351
814.443604,331
814.562256,335
814.68103,331
814.799683,330
814.918335,333
815.037109,329
815.155762,329
815.274475,336
815.393188,325
815.511841,358
815.630554,320
815.749146,327
815.867859,328
815.986572,343
816.105164,324
816.223877,321
816.342529,327
816.461182,334
816.579895,313
816.698486,339
816.817139,326
816.935791,336
817.054504,329
817.173096,323
817.291748,343
817.4104,335
817.529053,321
817.647644,333
817.766235,336
817.884949,342
818.00354,318
818.122192,336
818.240845,334
818.359436,321
818.478088,332
818.59668,315
818.715271,326
818.833923,334
818.952515,332
819.071106,334
819.189758,317
819.30835,325
819.426941,319
819.545532,339
819.664124,308
819.782715,325
819.901306,315
820.019897,319
820.138489,318
820.25708,335
820.375671,320
820.494202,316
820.612732,317
820.731384,315
820.849915,323
820.968506,316
821.087097,310
821.205627,308
821.324158,339
821.442749,321
821.561279,317
821.679871,324
821.798401,314
821.916931,333
822.035461,314
822.154053,312
822.272583,306
822.391174,322
822.509583,324
822.628174,327
822.746704,323
822.865234,312
822.983765,325
823.102295,323
823.220825,323
823.339294,309
823.457825,321
823.576355,333
823.694824,308
823.813354,324
823.931885,317
824.050354,327
824.168884,320
824.287354,321
824.405823,314
824.524353,312
824.642822,325
824.761353,318
824.879822,310
824.998291,325
825.116699,328
825.235291,328
825.353699,322
825.472168,310
825.590637,316
825.709106,324
825.827576,325
825.946045,331
826.064453,318
826.182983,321
826.301392,324
826.4198,324
826.53833,323
826.656738,323
826.775208,327
826.893677,312
827.012024,323
827.130493,328
827.248962,321
827.36731,318
827.485779,320
827.604248,328
827.722595,316
827.841064,310
827.959412,318
828.077942,327
828.196289,316
828.314636,312
828.433105,318
828.551514,326
828.669861,315
828.78833,304
828.906677,321
829.025085,320
829.143433,308
829.261841,330
829.38031,311
829.498657,324
829.617004,324
829.735413,322
829.85376,317
829.972107,323
830.090515,307
830.208862,340
830.327209,321
830.445557,317
830.563904,324
830.682312,317
830.800659,319
830.919006,320
831.037354,311
831.155701,323
831.274048,322
831.392395,322
831.51062,314
831.629028,318
831.747314,318
831.865662,317
831.984009,309
832.102356,319
832.220642,321
832.338928,317
832.457275,297
832.575623,311
832.693909,310
832.812134,331
832.930481,325
833.048828,310
833.167114,322
833.2854,313
833.403687,313
833.521973,302
833.640259,315
833.758545,329
833.876831,307
833.995056,332
834.113281,306
834.231628,331
834.349915,309
834.468201,339
834.586426,304
834.704651,315
834.822998,311
834.941162,324
835.059448,307
835.177673,320
835.295959,302
835.414246,315
835.53241,313
835.650635,331
835.768921,323
835.887146,326
836.005371,327
836.123596,322
836.241821,323
836.360046,312
836.478271,327
836.596497,328
836.714722,313
836.832886,317
836.95105,323
837.069336,322
837.1875,320
837.305725,319
837.423889,323
837.542053,320
837.660339,300
837.778503,318
837.896667,318
838.014832,331
838.132996,307
838.25116,328
838.369385,326
838.487488,312
838.605713,335
838.723877,321
838.84198,324
838.960205,325
839.078308,318
839.196472,321
839.314636,307
839.4328,324
839.550964,317
839.669067,320
839.787231,331
839.905396,317
840.023499,303
840.141602,320
840.259766,323
840.377869,316
840.495972,329
840.614136,319
840.732239,318
840.850342,320
840.968445,308
841.086548,330
841.204651,311
841.322754,327
841.440918,315
841.55896,332
841.677002,317
841.795166,315
841.913208,315
842.031311,318
842.149353,319
842.267456,329
842.385498,325
842.503601,323
842.621643,311
842.739746,314
842.857788,328
842.97583,320
843.093933,317
843.211975,334
843.330017,316
843.44812,316
843.566101,310
843.684204,317
843.802246,313
843.920227,313
844.038269,309
844.156311,316
844.274292,331
844.392395,315
844.510376,314
844.628357,324
844.74646,317
844.864441,314
844.982422,310
845.100403,325
845.218384,332
845.336426,319
845.454468,323
845.572449,316
845.69043,312
845.808411,303
845.926453,319
846.044373,318
846.162354,313
846.280396,321
846.398315,316
846.516296,325
846.634216,311
846.752197,317
846.870178,311
846.988098,316
847.106079,309
847.22406,314
847.34198,322
847.4599,321
847.577881,306
847.695801,320
847.813782,313
847.931641,327
848.049561,304
848.167603,316
848.285461,317
848.403381,323
848.521362,308
848.639221,329
848.75708,320
848.875,323
848.99292,315
849.110901,329
849.22876,317
849.34668,320
849.464539,313
849.582458,315
849.700317,310
849.818176,326
849.936096,313
850.053955,326
850.171875,320
850.289673,316
850.407593,321
850.525452,321
850.643311,317
850.761169,315
850.878967,321
850.996887,318
851.114746,317
851.232544,329
851.350403,318
851.468262,324
851.58606,322
851.703979,314
851.821777,310
851.939636,320
852.057434,323
852.175232,330
852.293091,312
852.410889,318
852.528687,317
852.646545,320
852.764343,313
852.88208,310
852.999939,315
853.117676,329
853.235535,314
853.353271,323
853.471069,317
853.588928,316
853.706604,309
853.824402,312
853.9422,321
854.059998,315
854.177734,303
854.295532,330
854.413269,316
854.531006,321
854.648804,327
854.766541,321
854.884277,323
855.002014,323
855.119751,313
855.237549,318
855.355225,319
855.473022,329
855.590698,321
855.708435,316
855.826172,322
855.943848,316
856.061646,321
856.179321,320
856.296997,313
856.414795,314
856.53241,309
856.650085,317
856.767822,310
856.885559,328
857.003174,320
857.120911,315
857.238586,320
857.356201,325
857.473938,312
857.591614,324
857.709351,315
857.826965,321
857.944641,310
858.062317,327
858.179993,324
858.297668,308
858.415283,331
858.532959,318
858.650574,319
858.768188,324
858.885803,315
859.003479,303
859.121094,312
859.23877,307
859.356384,322
859.473999,320
859.591675,311
859.709229,316
859.826843,331
859.944458,314
860.062012,321
860.179626,320
860.297302,309
860.414856,338
860.532471,317
860.650024,309
860.767639,309
860.885193,329
861.002808,316
861.120361,315
861.237976,312
861.35553,331
861.473022,327
861.590698,321
861.708191,324
861.825745,328
861.943298,314
862.060852,327
862.178406,309
862.295959,306
862.413513,313
862.531006,323
862.64856,315
862.766113,312
862.883667,308
863.00116,325
863.118713,313
863.236206,316
863.353699,319
863.471252,329
863.588745,310
863.706177,321
863.82373,324
863.941162,326
864.058716,321
864.176208,306
864.29364,309
864.411194,324
864.528687,320
864.646118,314
864.763611,309
864.881042,317
864.998535,321
865.116028,318
865.233459,328
865.350891,318
865.468384,311
865.585754,331
865.703308,320
865.820679,325
865.938171,314
866.055542,322
866.173035,317
866.290466,314
866.407837,301
866.52533,317
866.6427,318
866.760071,307
866.877563,312
866.994934,333
867.112305,316
867.229736,323
867.347107,331
867.464539,322
867.58197,312
867.699341,318
867.81665,304
867.934082,323
868.051453,322
868.168823,334
868.286194,319
868.403564,315
868.520935,317
868.638306,320
868.755676,327
868.872986,314
868.990295,328
869.107727,318
869.225037,305
869.342346,323
869.459717,317
869.577026,315
869.694336,323
869.811707,322
869.929016,340
870.046326,318
870.163635,306
870.280945,319
870.398254,325
870.515564,306
870.632812,341
870.750183,325
870.867432,320
870.984741,322
871.102051,312
871.219299,326
871.336609,310
871.453918,315
871.571106,315
871.688416,314
871.805664,313
871.922852,322
872.040222,328
872.157471,317
872.274719,316
872.391968,325
872.509155,313
872.626465,326
872.743652,311
872.860962,316
872.978149,313
873.095337,322
873.212646,318
873.329834,320
873.44696,322
873.564209,324
873.681396,313
873.798645,324
873.915894,310
874.03302,318
874.150208,307
874.267456,323
874.384583,322
874.501831,333
874.618958,312
874.736145,320
874.853333,314
874.970459,326
875.087646,322
875.204834,314
875.32196,294
875.439148,317
875.556274,306
875.673401,318
875.790527,328
875.907715,313
876.024841,305
876.141968,323
876.259094,324
876.376282,321
876.493347,316
876.610474,318
876.7276,321
876.844727,327
876.961853,318
877.078918,324
877.195984,310
877.313171,321
877.430237,322
877.547302,330
877.664368,316
877.781433,319
877.898499,322
878.015625,332
878.13269,303
878.249695,323
878.366821,318
878.483887,315
878.600952,318
878.717957,324
878.834961,317
878.952087,329
879.069092,319
879.186157,318
879.303162,318
879.420227,330
879.537231,309
879.654236,330
879.77124,326
879.888306,326
880.005249,307
880.122314,319
880.239319,314
880.356323,317
880.473328,313
880.590271,315
880.707275,325
880.824341,332
880.941284,326
881.058228,328
881.175232,329
881.292236,312
881.40918,324
881.526123,332
881.643066,323
881.760071,327
881.877014,314
881.993958,314
882.11084,312
882.227783,324
882.344727,308
882.46167,335
882.578613,310
882.695618,333
882.812439,333
882.929382,321
883.046326,323
883.163208,330
883.280151,327
883.397034,316
883.513916,317
883.630798,319
883.747742,315
883.864563,343
883.981506,308
884.098389,331
884.21521,320
884.332153,330
884.448975,327
884.565796,313
884.682678,304
884.7995,326
884.916443,317
885.033264,330
885.150085,324
885.266968,332
885.383789,322
885.500671,322
885.617493,313
885.734314,316
885.851196,315
885.967896,325
886.084717,326
886.201599,310
886.318359,316
886.435181,324
886.552002,311
886.668762,330
886.785645,324
886.902344,321
887.019165,315
887.135925,322
887.252747,323
887.369446,318
887.486267,330
887.603027,322
887.719788,324
887.836548,323
887.953247,312
888.070068,320
888.186829,332
888.303528,316
888.420288,313
888.536987,325
888.653687,322
888.770447,316
888.887146,326
889.003967,319
889.120667,319
889.237305,325
889.354065,306
889.470703,326
889.587463,310
889.704163,322
889.820862,317
889.937561,311
890.054199,316
890.170837,309
890.287598,321
890.404236,328
890.520874,319
890.637634,315
890.754211,305
890.87085,324
890.987549,304
891.104187,309
891.220886,303
891.337463,318
891.454102,326
891.57074,325
891.687378,310
891.804077,333
891.920654,311
892.037231,331
892.15387,327
892.270447,324
892.387085,312
892.503723,316
892.6203,323
892.736877,322
892.853516,308
892.970032,335
893.08667,322
893.203186,324
893.319763,323
893.43634,308
893.552917,320
893.669556,326
893.786011,309
893.902588,329
894.019165,309
894.135681,325
894.252197,327
894.368835,330
894.485291,303
894.601868,318
894.718384,327
894.8349,328
894.951355,304
895.067932,328
895.184448,320
895.300964,320
895.417419,316
895.533936,316
895.650452,316
895.766907,325
895.883423,328
895.999878,327
896.116333,304
896.232849,318
896.349304,337
896.465759,328
896.582214,313
896.698669,322
896.815125,330
896.931641,337
897.048035,326
897.164551,316
897.280884,321
897.397339,327
897.513794,318
897.630249,327
897.746582,330
897.863098,328
897.979431,318
898.095886,323
898.212341,330
898.328674,322
898.445129,312
898.561462,323
898.677795,324
898.794312,328
898.910645,302
899.026978,315
899.143433,336
899.259766,322
899.37616,328
899.492493,320
899.608765,322
899.725159,320
899.841553,317
899.957947,326
900.07428,305
900.190552,319
900.306946,318
900.423157,334
900.53949,320
900.655884,325
900.772156,317
900.888489,329
901.004822,311
901.121033,329
901.237366,314
901.353699,320
901.46991,325
901.586304,334
901.702515,319
901.818787,323
901.93512,331
902.051331,306
902.167603,318
902.283875,333
902.400085,322
902.516418,330
902.632629,311
902.74884,322
902.865112,327
902.981384,323
903.097595,318
903.213867,319
903.330017,313
903.446289,336
903.5625,314
903.67865,334
903.794922,329
903.911072,335
904.027344,319
904.143494,323
904.259705,318
904.375916,328
904.492065,319
904.608215,327
904.724426,314
904.840576,330
904.956726,315
905.072876,322
905.189087,326
905.305176,326
905.421387,325
905.537537,320
905.653687,311
905.769775,322
905.885925,316
906.002014,331
906.118164,309
906.234314,320
906.350403,324
906.466492,307
906.582642,322
906.69873,310
906.814758,318
906.930908,319
907.046936,323
907.163086,320
907.279175,314
907.395264,326
907.511353,316
907.62738,329
907.743408,322
907.859497,319
907.975525,323
908.091553,320
908.207703,323
908.32373,317
908.439758,321
908.555786,324
908.671814,324
908.787842,339
908.90387,322
909.019775,318
909.135864,311
909.251892,327
909.367859,331
909.483826,324
909.599854,314
909.715881,319
909.831848,321
909.947815,316
910.063782,329
910.179749,323
910.295776,329
910.411743,336
910.527649,316
910.643616,323
910.759583,320
910.875488,317
910.991455,324
911.107361,320
911.223267,314
911.339294,328
911.4552,318
911.571106,323
911.687073,322
911.802979,333
911.918823,315
912.034729,320
912.150635,317
912.266602,338
912.382446,314
912.498352,322
912.614197,322
912.730103,320
912.846008,322
