792.44574,291
792.56488,337
792.68396,379
792.80304,365
792.92218,330
793.041199,314
793.160339,306
793.279419,323
793.398499,333
793.517578,311
793.636658,303
793.755737,332
793.874817,348
793.993896,331
794.112976,319
794.232056,326
794.351074,310
794.470215,323
794.589233,319
794.708313,322
794.827393,309
794.946411,328
795.065552,338
795.18457,327
795.303589,333
795.422668,321
795.541687,319
795.660767,330
795.779846,309
795.898865,314
796.017883,324
796.136963,322
796.255981,319
796.375061,316
796.49408,329
796.613037,310
796.732117,323
796.851135,310
796.970154,312
797.089233,316
797.208191,331
797.327271,331
797.446228,313
797.565186,323
797.684265,314
797.803223,335
797.922241,315
798.04126,310
798.160278,315
798.279297,307
798.398315,316
798.517273,326
798.636292,319
798.75531,313
798.874268,333
798.993286,318
799.112244,326
799.231323,325
799.350281,312
799.469238,316
799.588257,320
799.707153,331
799.826111,326
799.945129,318
800.064087,323
800.183044,321
800.302063,320
800.421021,317
800.539978,303
800.658936,311
800.777893,301
800.896912,319
801.015747,320
801.134705,329
801.253723,330
801.37262,310
801.491638,319
801.610535,324
801.729492,308
801.84845,314
801.967407,323
802.086243,294
802.205261,329
802.324158,315
802.443115,315
802.562073,310
802.680969,315
802.799927,318
802.918762,307
803.037659,311
803.156677,317
803.275574,310
803.39447,327
803.513428,304
803.632263,321
803.751221,321
803.870117,327
803.989014,324
804.107971,325
804.226746,319
804.345642,325
804.4646,317
804.583496,319
804.702393,313
804.821228,321
804.940125,320
805.059021,327
805.177917,329
805.296814,324
805.415649,321
805.534546,330
805.653442,303
805.772278,332
805.891113,313
806.01001,333
806.128906,320
806.247742,309
806.366577,316
806.485413,326
806.604309,321
806.723145,317
806.84198,317
806.960876,319
807.079712,309
807.198486,327
807.317383,324
807.436218,339
807.554993,298
807.673889,334
807.792725,315
807.91156,325
808.030396,316
808.14917,310
808.268005,305
808.386841,327
808.505676,325
808.624451,344
808.743286,313
808.862122,328
808.980896,314
809.099731,316
809.218506,315
809.337341,315
809.456116,308
809.57489,314
809.693726,314
809.8125,322
809.931274,314
810.050049,328
810.168884,321
810.287659,312
810.406372,326
810.525269,323
810.643982,314
810.762756,336
810.881531,319
811.000305,330
811.11908,307
811.237854,319
811.356567,319
811.475403,308
811.594116,322
811.71283,311
811.831604,314
811.950378,312
812.069153,320
812.187927,330
812.30658,318
812.425415,344
812.544128,320
812.662781,326
812.781616,307
812.900269,317
813.019043,312
813.137756,310
813.256531,316
813.375244,331
813.493896,326
813.612671,326
813.731384,318
813.850037,320
813.96875,315
814.087524,313
814.206238,329
814.324951,320
814.443604,322
814.562256,313
814.68103,316
814.799683,317
814.918335,316
815.037109,315
815.155762,333
815.274475,319
815.393188,312
815.511841,313
815.630554,306
815.749146,314
815.867859,310
815.986572,319
816.105164,310
816.223877,318
816.342529,310
816.461182,318
816.579895,318
816.698486,305
816.817139,319
816.935791,322
817.054504,331
817.173096,318
817.291748,315
817.4104,327
817.529053,318
817.647644,322
817.766235,323
817.884949,328
818.00354,313
818.122192,314
818.240845,319
818.359436,317
818.478088,321
818.59668,325
818.715271,303
818.833923,322
818.952515,320
819.071106,332
819.189758,315
819.30835,319
819.426941,303
819.545532,317
819.664124,327
819.782715,325
819.901306,323
820.019897,317
820.138489,323
820.25708,326
820.375671,322
820.494202,323
820.612732,315
820.731384,312
820.849915,314
820.968506,310
821.087097,315
821.205627,316
821.324158,313
821.442749,315
821.561279,305
821.679871,309
821.798401,309
821.916931,318
822.035461,304
822.154053,318
822.272583,322
822.391174,319
822.509583,316
822.628174,319
822.746704,304
822.865234,311
822.983765,319
823.102295,302
823.220825,311
823.339294,317
823.457825,331
823.576355,310
823.694824,309
823.813354,310
823.931885,314
824.050354,314
824.168884,319
824.287354,310
824.405823,307
824.524353,318
824.642822,322
824.761353,311
824.879822,313
824.998291,315
825.116699,311
825.235291,317
825.353699,307
825.472168,321
825.590637,323
825.709106,318
825.827576,311
825.946045,310
826.064453,309
826.182983,312
826.301392,313
826.4198,320
826.53833,304
826.656738,310
826.775208,301
826.893677,312
827.012024,297
827.130493,310
827.248962,307
827.36731,319
827.485779,311
827.604248,309
827.722595,296
827.841064,318
827.959412,308
828.077942,321
828.196289,311
828.314636,311
828.433105,321
828.551514,305
828.669861,313
828.78833,313
828.906677,312
829.025085,304
829.143433,321
829.261841,313
829.38031,306
829.498657,326
829.617004,327
829.735413,316
829.85376,317
829.972107,309
830.090515,322
830.208862,317
830.327209,309
830.445557,312
830.563904,313
830.682312,326
830.800659,311
830.919006,321
831.037354,311
831.155701,312
831.274048,316
831.392395,319
831.51062,322
831.629028,313
831.747314,319
831.865662,318
831.984009,316
832.102356,323
832.220642,310
832.338928,312
832.457275,326
832.575623,310
832.693909,305
832.812134,313
832.930481,317
833.048828,316
833.167114,308
833.2854,321
833.403687,308
833.521973,324
833.640259,296
833.758545,327
833.876831,322
833.995056,322
834.113281,306
834.231628,315
834.349915,305
834.468201,315
834.586426,323
834.704651,314
834.822998,320
834.941162,324
835.059448,302
835.177673,313
835.295959,314
835.414246,307
835.53241,310
835.650635,312
835.768921,323
835.887146,318
836.005371,310
836.123596,320
836.241821,312
836.360046,316
836.478271,313
836.596497,310
836.714722,308
836.832886,308
836.95105,313
837.069336,311
837.1875,309
837.305725,310
837.423889,320
837.542053,312
837.660339,327
837.778503,310
837.896667,308
838.014832,312
838.132996,308
838.25116,322
838.369385,304
838.487488,316
838.605713,329
838.723877,323
838.84198,311
838.960205,316
839.078308,323
839.196472,326
839.314636,306
839.4328,304
839.550964,311
839.669067,311
839.787231,321
839.905396,317
840.023499,316
840.141602,317
840.259766,319
840.377869,329
840.495972,312
840.614136,310
840.732239,314
840.850342,319
840.968445,324
841.086548,324
841.204651,300
841.322754,328
841.440918,313
841.55896,332
841.677002,317
841.795166,306
841.913208,308
842.031311,325
842.149353,314
842.267456,326
842.385498,312
842.503601,309
842.621643,320
842.739746,315
842.857788,320
842.97583,321
843.093933,327
843.211975,304
843.330017,314
843.44812,324
843.566101,303
843.684204,308
843.802246,313
843.920227,334
844.038269,311
844.156311,314
844.274292,309
844.392395,304
844.510376,316
844.628357,315
844.74646,330
844.864441,315
844.982422,310
845.100403,328
845.218384,318
845.336426,330
845.454468,304
845.572449,329
845.69043,303
845.808411,321
845.926453,309
846.044373,315
846.162354,305
846.280396,315
846.398315,315
846.516296,310
846.634216,309
846.752197,307
846.870178,313
846.988098,317
847.106079,311
847.22406,316
847.34198,322
847.4599,328
847.577881,313
847.695801,317
847.813782,303
847.931641,329
848.049561,305
848.167603,315
848.285461,300
848.403381,311
848.521362,314
848.639221,325
848.75708,309
848.875,320
848.99292,313
849.110901,314
849.22876,300
849.34668,313
849.464539,314
849.582458,310
849.700317,324
849.818176,325
849.936096,307
850.053955,314
850.171875,324
850.289673,314
850.407593,307
850.525452,322
850.643311,320
850.761169,301
850.878967,321
850.996887,324
851.114746,316
851.232544,328
851.350403,294
851.468262,312
851.58606,305
851.703979,317
851.821777,308
851.939636,311
852.057434,312
852.175232,306
852.293091,316
852.410889,314
852.528687,313
852.646545,314
852.764343,312
852.88208,310
852.999939,313
853.117676,316
853.235535,308
853.353271,317
853.471069,318
853.588928,315
853.706604,313
853.824402,319
853.9422,307
854.059998,318
854.177734,318
854.295532,322
854.413269,301
854.531006,315
854.648804,300
854.766541,321
854.884277,302
855.002014,318
855.119751,311
855.237549,300
855.355225,317
855.473022,319
855.590698,317
855.708435,307
855.826172,320
855.943848,331
856.061646,314
856.179321,305
856.296997,327
856.414795,309
856.53241,317
856.650085,317
856.767822,310
856.885559,312
857.003174,301
857.120911,322
857.238586,314
857.356201,331
857.473938,311
857.591614,313
857.709351,322
857.826965,339
857.944641,319
858.062317,308
858.179993,314
858.297668,317
858.415283,306
858.532959,313
858.650574,319
858.768188,328
858.885803,307
859.003479,323
859.121094,297
859.23877,306
859.356384,327
859.473999,316
859.591675,309
859.709229,309
859.826843,318
859.944458,324
860.062012,303
860.179626,313
860.297302,303
860.414856,315
860.532471,301
860.650024,313
860.767639,307
860.885193,319
861.002808,307
861.120361,323
861.237976,318
861.35553,324
861.473022,311
861.590698,322
861.708191,323
861.825745,320
861.943298,309
862.060852,326
862.178406,295
862.295959,309
862.413513,312
862.531006,320
862.64856,306
862.766113,321
862.883667,321
863.00116,315
863.118713,326
863.236206,337
863.353699,304
863.471252,323
863.588745,301
863.706177,317
863.82373,325
863.941162,303
864.058716,322
864.176208,323
864.29364,316
864.411194,323
864.528687,317
864.646118,314
864.763611,317
864.881042,304
864.998535,306
865.116028,318
865.233459,321
865.350891,313
865.468384,316
865.585754,320
865.703308,297
865.820679,310
865.938171,312
866.055542,311
866.173035,307
866.290466,318
866.407837,320
866.52533,314
866.6427,326
866.760071,309
866.877563,305
866.994934,316
867.112305,309
867.229736,324
867.347107,322
867.464539,314
867.58197,305
867.699341,314
867.81665,312
867.934082,324
868.051453,320
868.168823,319
868.286194,316
868.403564,307
868.520935,307
868.638306,317
868.755676,319
868.872986,320
868.990295,304
869.107727,311
869.225037,315
869.342346,309
869.459717,318
869.577026,305
869.694336,324
869.811707,326
869.929016,311
870.046326,314
870.163635,309
870.280945,316
870.398254,299
870.515564,323
870.632812,312
870.750183,323
870.867432,313
870.984741,320
871.102051,308
871.219299,329
871.336609,313
871.453918,313
871.571106,315
871.688416,317
871.805664,317
871.922852,315
872.040222,326
872.157471,317
872.274719,313
872.391968,312
872.509155,305
872.626465,328
872.743652,302
872.860962,324
872.978149,315
873.095337,323
873.212646,308
873.329834,325
873.44696,313
873.564209,310
873.681396,316
873.798645,309
873.915894,314
874.03302,319
874.150208,311
874.267456,319
874.384583,312
874.501831,313
874.618958,315
874.736145,324
874.853333,309
874.970459,307
875.087646,318
875.204834,318
875.32196,300
875.439148,309
875.556274,316
875.673401,310
875.790527,326
875.907715,317
876.024841,328
876.141968,326
876.259094,312
876.376282,331
876.493347,320
876.610474,314
876.7276,316
876.844727,311
876.961853,310
877.078918,312
877.195984,311
877.313171,322
877.430237,309
877.547302,314
877.664368,327
877.781433,328
877.898499,310
878.015625,314
878.13269,304
878.249695,313
878.366821,313
878.483887,312
878.600952,311
878.717957,320
878.834961,318
878.952087,308
879.069092,314
879.186157,328
879.303162,322
879.420227,324
879.537231,321
879.654236,314
879.77124,305
879.888306,325
880.005249,326
880.122314,307
880.239319,310
880.356323,316
880.473328,311
880.590271,319
880.707275,307
880.824341,309
880.941284,312
881.058228,329
881.175232,314
881.292236,314
881.40918,315
881.526123,309
881.643066,316
881.760071,320
881.877014,318
881.993958,318
882.11084,318
882.227783,316
882.344727,303
882.46167,303
882.578613,310
882.695618,323
882.812439,304
882.929382,313
883.046326,306
883.163208,322
883.280151,322
883.397034,307
883.513916,313
883.630798,314
883.747742,321
883.864563,316
883.981506,310
884.098389,316
884.21521,304
884.332153,322
884.448975,306
884.565796,323
884.682678,316
884.7995,323
884.916443,312
885.033264,315
885.150085,323
885.266968,307
885.383789,307
885.500671,322
885.617493,315
885.734314,315
885.851196,305
885.967896,299
886.084717,313
886.201599,315
886.318359,316
886.435181,322
886.552002,299
886.668762,319
886.785645,306
886.902344,316
887.019165,317
887.135925,320
887.252747,318
887.369446,311
887.486267,320
887.603027,322
887.719788,321
887.836548,304
887.953247,305
888.070068,323
888.186829,309
888.303528,305
888.420288,313
888.536987,310
888.653687,316
888.770447,309
888.887146,309
889.003967,322
889.120667,318
889.237305,313
889.354065,305
889.470703,305
889.587463,312
889.704163,310
889.820862,316
889.937561,324
890.054199,313
890.170837,321
890.287598,302
890.404236,322
890.520874,319
890.637634,326
890.754211,316
890.87085,311
890.987549,305
891.104187,334
891.220886,287
891.337463,322
891.454102,330
891.57074,313
891.687378,308
891.804077,323
891.920654,310
892.037231,320
892.15387,314
892.270447,307
892.387085,302
892.503723,313
892.6203,319
892.736877,311
892.853516,324
892.970032,329
893.08667,323
893.203186,328
893.319763,311
893.43634,332
893.552917,323
893.669556,320
893.786011,302
893.902588,316
894.019165,315
894.135681,316
894.252197,312
894.368835,312
894.485291,309
894.601868,313
894.718384,306
894.8349,330
894.951355,307
895.067932,323
895.184448,319
895.300964,311
895.417419,320
895.533936,318
895.650452,323
895.766907,329
895.883423,318
895.999878,306
896.116333,301
896.232849,314
896.349304,310
896.465759,298
896.582214,305
896.698669,316
896.815125,323
896.931641,317
897.048035,322
897.164551,319
897.280884,309
897.397339,325
897.513794,302
897.630249,319
897.746582,304
897.863098,313
897.979431,313
898.095886,317
898.212341,313
898.328674,327
898.445129,305
898.561462,321
898.677795,307
898.794312,319
898.910645,308
899.026978,314
899.143433,305
899.259766,313
899.37616,312
899.492493,307
899.608765,314
899.725159,326
899.841553,309
899.957947,304
900.07428,310
900.190552,332
900.306946,312
900.423157,317
900.53949,304
900.655884,328
900.772156,325
900.888489,313
901.004822,304
901.121033,303
901.237366,320
901.353699,314
901.46991,314
901.586304,306
901.702515,318
901.818787,320
901.93512,306
902.051331,316
902.167603,320
902.283875,314
902.400085,324
902.516418,320
902.632629,312
902.74884,329
902.865112,313
902.981384,314
903.097595,320
903.213867,306
903.330017,312
903.446289,316
903.5625,325
903.67865,316
903.794922,321
903.911072,319
904.027344,314
904.143494,338
904.259705,317
904.375916,326
904.492065,304
904.608215,317
904.724426,322
904.840576,324
904.956726,323
905.072876,324
905.189087,318
905.305176,317
905.421387,319
905.537537,310
905.653687,326
905.769775,322
905.885925,322
906.002014,326
906.118164,319
906.234314,328
906.350403,312
906.466492,321
906.582642,321
906.69873,341
906.814758,315
906.930908,316
907.046936,311
907.163086,310
907.279175,298
907.395264,316
907.511353,312
907.62738,313
907.743408,313
907.859497,320
907.975525,329
908.091553,321
908.207703,310
908.32373,328
908.439758,333
908.555786,320
908.671814,312
908.787842,317
908.90387,310
909.019775,324
909.135864,318
909.251892,314
909.367859,329
909.483826,308
909.599854,329
909.715881,321
909.831848,306
909.947815,325
910.063782,305
910.179749,332
910.295776,312
910.411743,317
910.527649,314
910.643616,302
910.759583,330
910.875488,326
910.991455,313
911.107361,320
911.223267,311
911.339294,317
911.4552,314
911.571106,331
911.687073,309
911.802979,311
911.918823,318
912.034729,314
912.150635,321
912.266602,321
912.382446,314
912.498352,309
912.614197,302
912.730103,312
912.846008,308
792.44574,308
792.56488,348
792.68396,387
792.80304,371
792.92218,329
793.041199,300
793.160339,301
793.279419,337
793.398499,300
793.517578,306
793.636658,304
793.755737,332
793.874817,338
793.993896,337
794.112976,313
794.232056,305
794.351074,319
794.470215,321
794.589233,320
794.708313,319
794.827393,313
794.946411,326
795.065552,329
795.18457,330
795.303589,325
795.422668,304
795.541687,327
795.660767,323
795.779846,336
795.898865,326
796.017883,306
796.136963,315
796.255981,317
796.375061,316
796.49408,328
796.613037,314
796.732117,326
796.851135,313
796.970154,324
797.089233,334
797.208191,311
797.327271,322
797.446228,318
797.565186,321
797.684265,311
797.803223,323
797.922241,319
798.04126,328
798.160278,342
798.279297,297
798.398315,315
798.517273,317
798.636292,319
798.75531,318
798.874268,336
798.993286,331
799.112244,314
799.231323,318
799.350281,322
799.469238,324
799.588257,326
799.707153,332
799.826111,327
799.945129,314
800.064087,330
800.183044,315
800.302063,321
800.421021,319
800.539978,333
800.658936,316
800.777893,319
800.896912,324
801.015747,328
801.134705,322
801.253723,314
801.37262,321
801.491638,326
801.610535,313
801.729492,331
801.84845,316
801.967407,317
802.086243,321
802.205261,319
802.324158,323
802.443115,321
802.562073,326
802.680969,325
802.799927,331
802.918762,307
803.037659,309
803.156677,318
803.275574,321
803.39447,318
803.513428,329
803.632263,314
803.751221,305
803.870117,316
803.989014,321
804.107971,312
804.226746,318
804.345642,322
804.4646,320
804.583496,311
804.702393,317
804.821228,318
804.940125,312
805.059021,320
805.177917,323
805.296814,327
805.415649,316
805.534546,328
805.653442,309
805.772278,312
805.891113,313
806.01001,314
806.128906,316
806.247742,312
806.366577,323
806.485413,326
806.604309,322
806.723145,312
806.84198,320
806.960876,308
807.079712,310
807.198486,325
807.317383,320
807.436218,320
807.554993,321
807.673889,321
807.792725,298
807.91156,319
808.030396,326
808.14917,324
808.268005,313
808.386841,319
808.505676,320
808.624451,313
808.743286,327
808.862122,319
808.980896,328
809.099731,325
809.218506,330
809.337341,306
809.456116,316
809.57489,311
809.693726,329
809.8125,317
809.931274,316
810.050049,308
810.168884,322
810.287659,318
810.406372,314
810.525269,327
810.643982,308
810.762756,317
810.881531,315
811.000305,325
811.11908,312
811.237854,311
811.356567,317
811.475403,317
811.594116,321
811.71283,323
811.831604,320
811.950378,318
812.069153,319
812.187927,308
812.30658,326
812.425415,330
812.544128,316
812.662781,319
812.781616,313
812.900269,314
813.019043,320
813.137756,317
813.256531,325
813.375244,322
813.493896,312
813.612671,319
813.731384,322
813.850037,339
813.96875,334
814.087524,315
814.206238,313
814.324951,326
814.443604,335
814.562256,318
814.68103,324
814.799683,316
814.918335,323
815.037109,323
815.155762,313
815.274475,324
815.393188,313
815.511841,328
815.630554,313
815.749146,314
815.867859,319
815.986572,323
816.105164,309
816.223877,320
816.342529,302
816.461182,322
816.579895,315
816.698486,310
816.817139,312
816.935791,324
817.054504,315
817.173096,319
817.291748,333
817.4104,327
817.529053,337
817.647644,299
817.766235,320
817.884949,304
818.00354,319
818.122192,317
818.240845,317
818.359436,318
818.478088,317
818.59668,317
818.715271,306
818.833923,330
818.952515,321
819.071106,312
819.189758,324
819.30835,315
819.426941,324
819.545532,314
819.664124,302
819.782715,314
819.901306,317
820.019897,313
820.138489,310
820.25708,321
820.375671,319
820.494202,321
820.612732,326
820.731384,320
820.849915,330
820.968506,302
821.087097,317
821.205627,322
821.324158,303
821.442749,313
821.561279,317
821.679871,313
821.798401,312
821.916931,306
822.035461,328
822.154053,324
822.272583,321
822.391174,323
822.509583,311
822.628174,313
822.746704,316
822.865234,325
822.983765,310
823.102295,299
823.220825,308
823.339294,305
823.457825,312
823.576355,313
823.694824,317
823.813354,307
823.931885,304
824.050354,314
824.168884,306
824.287354,314
824.405823,318
824.524353,308
824.642822,319
824.761353,308
824.879822,313
824.998291,304
825.116699,313
825.235291,315
825.353699,307
825.472168,311
825.590637,314
825.709106,312
825.827576,311
825.946045,320
826.064453,313
826.182983,325
826.301392,329
826.4198,315
826.53833,317
826.656738,310
826.775208,324
826.893677,307
827.012024,306
827.130493,310
827.248962,325
827.36731,317
827.485779,300
827.604248,324
827.722595,306
827.841064,322
827.959412,318
828.077942,321
828.196289,310
828.314636,315
828.433105,314
828.551514,330
828.669861,312
828.78833,305
828.906677,302
829.025085,313
829.143433,320
829.261841,309
829.38031,323
829.498657,304
829.617004,312
829.735413,318
829.85376,317
829.972107,323
830.090515,319
830.208862,316
830.327209,317
830.445557,328
830.563904,323
830.682312,318
830.800659,319
830.919006,328
831.037354,323
831.155701,308
831.274048,307
831.392395,307
831.51062,328
831.629028,318
831.747314,311
831.865662,309
831.984009,318
832.102356,313
832.220642,309
832.338928,322
832.457275,326
832.575623,310
832.693909,324
832.812134,326
832.930481,320
833.048828,311
833.167114,317
833.2854,318
833.403687,316
833.521973,324
833.640259,316
833.758545,319
833.876831,313
833.995056,314
834.113281,323
834.231628,319
834.349915,329
834.468201,300
834.586426,310
834.704651,331
834.822998,304
834.941162,304
835.059448,329
835.177673,315
835.295959,317
835.414246,324
835.53241,305
835.650635,315
835.768921,313
835.887146,305
836.005371,337
836.123596,320
836.241821,318
836.360046,318
836.478271,322
836.596497,324
836.714722,312
836.832886,314
836.95105,318
837.069336,310
837.1875,319
837.305725,318
837.423889,312
837.542053,319
837.660339,319
837.778503,316
837.896667,328
838.014832,317
838.132996,314
838.25116,324
838.369385,309
838.487488,312
838.605713,323
838.723877,316
838.84198,321
838.960205,315
839.078308,317
839.196472,314
839.314636,310
839.4328,319
839.550964,319
839.669067,319
839.787231,319
839.905396,310
840.023499,313
840.141602,322
840.259766,315
840.377869,307
840.495972,316
840.614136,321
840.732239,321
840.850342,315
840.968445,316
841.086548,323
841.204651,318
841.322754,316
841.440918,327
841.55896,303
841.677002,324
841.795166,311
841.913208,315
842.031311,320
842.149353,320
842.267456,313
842.385498,324
842.503601,311
842.621643,322
842.739746,304
842.857788,307
842.97583,327
843.093933,314
843.211975,325
843.330017,324
843.44812,327
843.566101,319
843.684204,325
843.802246,310
843.920227,305
844.038269,320
844.156311,320
844.274292,309
844.392395,327
844.510376,312
844.628357,310
844.74646,303
844.864441,321
844.982422,317
845.100403,318
845.218384,312
845.336426,312
845.454468,318
845.572449,309
845.69043,314
845.808411,318
845.926453,321
846.044373,298
846.162354,323
846.280396,317
846.398315,302
846.516296,314
846.634216,317
846.752197,303
846.870178,318
846.988098,326
847.106079,323
847.22406,303
847.34198,319
847.4599,308
847.577881,317
847.695801,317
847.813782,314
847.931641,310
848.049561,327
848.167603,305
848.285461,334
848.403381,314
848.521362,315
848.639221,314
848.75708,315
848.875,312
848.99292,326
849.110901,318
849.22876,317
849.34668,311
849.464539,321
849.582458,308
849.700317,319
849.818176,327
849.936096,325
850.053955,321
850.171875,315
850.289673,320
850.407593,322
850.525452,318
850.643311,314
850.761169,313
850.878967,315
850.996887,319
851.114746,316
851.232544,313
851.350403,332
851.468262,295
851.58606,326
851.703979,311
851.821777,313
851.939636,318
852.057434,328
852.175232,318
852.293091,321
852.410889,319
852.528687,325
852.646545,313
852.764343,322
852.88208,307
852.999939,330
853.117676,315
853.235535,311
853.353271,320
853.471069,320
853.588928,315
853.706604,313
853.824402,308
853.9422,306
854.059998,315
854.177734,321
854.295532,312
854.413269,318
854.531006,317
854.648804,305
854.766541,309
854.884277,298
855.002014,314
855.119751,319
855.237549,309
855.355225,318
855.473022,319
855.590698,311
855.708435,323
855.826172,311
855.943848,303
856.061646,318
856.179321,319
856.296997,326
856.414795,307
856.53241,314
856.650085,332
856.767822,313
856.885559,312
857.003174,322
857.120911,314
857.238586,313
857.356201,311
857.473938,312
857.591614,314
857.709351,306
857.826965,312
857.944641,312
858.062317,314
858.179993,319
858.297668,321
858.415283,328
858.532959,326
858.650574,322
858.768188,322
858.885803,321
859.003479,310
859.121094,323
859.23877,319
859.356384,309
859.473999,312
859.591675,312
859.709229,311
859.826843,317
859.944458,309
860.062012,316
860.179626,325
860.297302,308
860.414856,313
860.532471,317
860.650024,314
860.767639,310
860.885193,319
861.002808,310
861.120361,314
861.237976,327
861.35553,304
861.473022,317
861.590698,313
861.708191,317
861.825745,321
861.943298,313
862.060852,305
862.178406,313
862.295959,302
862.413513,308
862.531006,319
862.64856,304
862.766113,339
862.883667,322
863.00116,316
863.118713,319
863.236206,319
863.353699,322
863.471252,313
863.588745,327
863.706177,310
863.82373,309
863.941162,311
864.058716,318
864.176208,317
864.29364,313
864.411194,309
864.528687,304
864.646118,323
864.763611,321
864.881042,320
864.998535,324
865.116028,318
865.233459,318
865.350891,315
865.468384,331
865.585754,310
865.703308,304
865.820679,314
865.938171,307
866.055542,316
866.173035,324
866.290466,321
866.407837,318
866.52533,323
866.6427,323
866.760071,319
866.877563,328
866.994934,313
867.112305,306
867.229736,305
867.347107,309
867.464539,315
867.58197,328
867.699341,311
867.81665,315
867.934082,311
868.051453,302
868.168823,316
868.286194,312
868.403564,306
868.520935,306
868.638306,323
868.755676,326
868.872986,324
868.990295,328
869.107727,321
869.225037,305
869.342346,310
869.459717,313
869.577026,323
869.694336,325
869.811707,308
869.929016,311
870.046326,321
870.163635,313
870.280945,306
870.398254,316
870.515564,310
870.632812,315
870.750183,324
870.867432,317
870.984741,308
871.102051,317
871.219299,323
871.336609,316
871.453918,322
871.571106,328
871.688416,306
871.805664,303
871.922852,309
872.040222,319
872.157471,315
872.274719,311
872.391968,315
872.509155,312
872.626465,306
872.743652,318
872.860962,319
872.978149,317
873.095337,313
873.212646,323
873.329834,307
873.44696,313
873.564209,331
873.681396,325
873.798645,303
873.915894,313
874.03302,308
874.150208,305
874.267456,322
874.384583,307
874.501831,310
874.618958,318
874.736145,308
874.853333,307
874.970459,306
875.087646,316
875.204834,324
875.32196,313
875.439148,319
875.556274,314
875.673401,316
875.790527,301
875.907715,302
876.024841,311
876.141968,315
876.259094,313
876.376282,310
876.493347,315
876.610474,302
876.7276,310
876.844727,317
876.961853,328
877.078918,313
877.195984,316
877.313171,329
877.430237,311
877.547302,316
877.664368,327
877.781433,319
877.898499,327
878.015625,313
878.13269,317
878.249695,320
878.366821,305
878.483887,329
878.600952,316
878.717957,304
878.834961,309
878.952087,317
879.069092,314
879.186157,311
879.303162,310
879.420227,317
879.537231,314
879.654236,311
879.77124,323
879.888306,317
880.005249,306
880.122314,299
880.239319,323
880.356323,315
880.473328,312
880.590271,305
880.707275,311
880.824341,319
880.941284,324
881.058228,306
881.175232,310
881.292236,315
881.40918,317
881.526123,313
881.643066,291
881.760071,315
881.877014,317
881.993958,314
882.11084,322
882.227783,315
882.344727,320
882.46167,307
882.578613,310
882.695618,309
882.812439,319
882.929382,319
883.046326,316
883.163208,318
883.280151,306
883.397034,306
883.513916,319
883.630798,307
883.747742,323
883.864563,309
883.981506,304
884.098389,316
884.21521,317
884.332153,320
884.448975,321
884.565796,304
884.682678,324
884.7995,318
884.916443,313
885.033264,322
885.150085,325
885.266968,319
885.383789,330
885.500671,308
885.617493,309
885.734314,303
885.851196,329
885.967896,314
886.084717,309
886.201599,314
886.318359,331
886.435181,315
886.552002,325
886.668762,308
886.785645,319
886.902344,319
887.019165,312
887.135925,317
887.252747,318
887.369446,320
887.486267,320
887.603027,309
887.719788,318
887.836548,318
887.953247,331
888.070068,315
888.186829,328
888.303528,308
888.420288,323
888.536987,312
888.653687,317
888.770447,314
888.887146,318
889.003967,307
889.120667,317
889.237305,305
889.354065,311
889.470703,315
889.587463,320
889.704163,303
889.820862,311
889.937561,311
890.054199,326
890.170837,304
890.287598,323
890.404236,310
890.520874,317
890.637634,317
890.754211,314
890.87085,320
890.987549,325
891.104187,302
891.220886,328
891.337463,303
891.454102,327
891.57074,318
891.687378,309
891.804077,319
891.920654,312
892.037231,322
892.15387,306
892.270447,318
892.387085,318
892.503723,323
892.6203,313
892.736877,319
892.853516,307
892.970032,316
893.08667,311
893.203186,303
893.319763,318
893.43634,303
893.552917,318
893.669556,322
893.786011,320
893.902588,312
894.019165,328
894.135681,314
894.252197,314
894.368835,310
894.485291,323
894.601868,310
894.718384,316
894.8349,308
894.951355,327
895.067932,321
895.184448,314
895.300964,321
895.417419,302
895.533936,304
895.650452,299
895.766907,315
895.883423,313
895.999878,317
896.116333,325
896.232849,316
896.349304,315
896.465759,317
896.582214,309
896.698669,323
896.815125,323
896.931641,305
897.048035,322
897.164551,320
897.280884,323
897.397339,314
897.513794,318
897.630249,318
897.746582,326
897.863098,309
897.979431,308
898.095886,312
898.212341,317
898.328674,313
898.445129,320
898.561462,319
898.677795,318
898.794312,312
898.910645,316
899.026978,315
899.143433,319
899.259766,302
899.37616,330
899.492493,299
899.608765,331
899.725159,329
899.841553,324
899.957947,312
900.07428,313
900.190552,310
900.306946,308
900.423157,320
900.53949,311
900.655884,308
900.772156,318
900.888489,318
901.004822,305
901.121033,314
901.237366,320
901.353699,318
901.46991,319
901.586304,328
901.702515,321
901.818787,308
901.93512,320
902.051331,311
902.167603,320
902.283875,302
902.400085,303
902.516418,313
902.632629,322
902.74884,339
902.865112,315
902.981384,324
903.097595,320
903.213867,311
903.330017,322
903.446289,329
903.5625,319
903.67865,308
903.794922,318
903.911072,299
904.027344,323
904.143494,307
904.259705,319
904.375916,312
904.492065,332
904.608215,320
904.724426,318
904.840576,318
904.956726,319
905.072876,317
905.189087,316
905.305176,315
905.421387,317
905.537537,318
905.653687,309
905.769775,307
905.885925,318
906.002014,321
906.118164,317
906.234314,327
906.350403,326
906.466492,310
906.582642,315
906.69873,313
906.814758,314
906.930908,317
907.046936,319
907.163086,312
907.279175,330
907.395264,323
907.511353,314
907.62738,313
907.743408,319
907.859497,315
907.975525,305
908.091553,315
908.207703,313
908.32373,312
908.439758,331
908.555786,307
908.671814,329
908.787842,312
908.90387,314
909.019775,308
909.135864,324
909.251892,322
909.367859,311
909.483826,303
909.599854,316
909.715881,312
909.831848,323
909.947815,312
910.063782,323
910.179749,306
910.295776,322
910.411743,312
910.527649,313
910.643616,327
910.759583,318
910.875488,317
910.991455,315
911.107361,308
911.223267,312
911.339294,296
911.4552,326
911.571106,301
911.687073,326
911.802979,320
911.918823,317
912.034729,313
912.150635,321
912.266602,318
912.382446,323
912.498352,314
912.614197,311
912.730103,313
912.846008,322
792.44574,298
792.56488,324
792.68396,386
792.80304,378
792.92218,331
793.041199,309
793.160339,310
793.279419,327
793.398499,326
793.517578,308
793.636658,299
793.755737,311
793.874817,347
793.993896,333
794.112976,329
794.232056,324
794.351074,318
794.470215,324
794.589233,327
794.708313,317
794.827393,331
794.946411,305
795.065552,334
795.18457,312
795.303589,315
795.422668,329
795.541687,312
795.660767,329
795.779846,334
795.898865,320
796.017883,314
796.136963,323
796.255981,332
796.375061,317
796.49408,341
796.613037,319
796.732117,323
796.851135,337
796.970154,312
797.089233,311
797.208191,321
797.327271,313
797.446228,335
797.565186,323
797.684265,327
797.803223,313
797.922241,309
798.04126,319
798.160278,324
798.279297,321
798.398315,324
798.517273,317
798.636292,310
798.75531,307
798.874268,315
798.993286,321
799.112244,320
799.231323,317
799.350281,332
799.469238,311
799.588257,344
799.707153,331
799.826111,318
799.945129,314
800.064087,310
800.183044,315
800.302063,323
800.421021,328
800.539978,334
800.658936,304
800.777893,321
800.896912,316
801.015747,309
801.134705,314
801.253723,304
801.37262,320
801.491638,316
801.610535,315
801.729492,320
801.84845,317
801.967407,319
802.086243,316
802.205261,325
802.324158,310
802.443115,310
802.562073,323
802.680969,318
802.799927,332
802.918762,326
803.037659,327
803.156677,324
803.275574,319
803.39447,308
803.513428,327
803.632263,311
803.751221,325
803.870117,314
803.989014,330
804.107971,326
804.226746,317
804.345642,332
804.4646,322
804.583496,318
804.702393,314
804.821228,313
804.940125,325
805.059021,318
805.177917,308
805.296814,331
805.415649,309
805.534546,318
805.653442,312
805.772278,329
805.891113,325
806.01001,326
806.128906,316
806.247742,320
806.366577,309
806.485413,308
806.604309,320
806.723145,321
806.84198,322
806.960876,319
807.079712,312
807.198486,322
807.317383,317
807.436218,316
807.554993,309
807.673889,322
807.792725,320
807.91156,339
808.030396,324
808.14917,311
808.268005,325
808.386841,313
808.505676,330
808.624451,317
808.743286,317
808.862122,320
808.980896,317
809.099731,320
809.218506,325
809.337341,319
809.456116,318
809.57489,304
809.693726,331
809.8125,324
809.931274,319
810.050049,316
810.168884,321
810.287659,334
810.406372,308
810.525269,332
810.643982,316
810.762756,316
810.881531,318
811.000305,305
811.11908,335
811.237854,319
811.356567,323
811.475403,313
811.594116,321
811.71283,313
811.831604,317
811.950378,325
812.069153,320
812.187927,333
812.30658,322
812.425415,324
812.544128,311
812.662781,331
812.781616,316
812.900269,319
813.019043,333
813.137756,310
813.256531,321
813.375244,326
813.493896,317
813.612671,306
813.731384,308
813.850037,309
813.96875,317
814.087524,326
814.206238,316
814.324951,319
814.443604,318
814.562256,328
814.68103,321
814.799683,326
814.918335,326
815.037109,307
815.155762,319
815.274475,324
815.393188,314
815.511841,317
815.630554,329
815.749146,312
815.867859,316
815.986572,316
816.105164,312
816.223877,326
816.342529,316
816.461182,327
816.579895,309
816.698486,327
816.817139,320
816.935791,339
817.054504,320
817.173096,317
817.291748,306
817.4104,318
817.529053,314
817.647644,313
817.766235,320
817.884949,326
818.00354,316
818.122192,310
818.240845,316
818.359436,324
818.478088,307
818.59668,309
818.715271,313
818.833923,315
818.952515,308
819.071106,317
819.189758,308
819.30835,300
819.426941,313
819.545532,311
819.664124,322
819.782715,331
819.901306,311
820.019897,330
820.138489,319
820.25708,324
820.375671,313
820.494202,323
820.612732,314
820.731384,319
820.849915,329
820.968506,312
821.087097,307
821.205627,311
821.324158,325
821.442749,319
821.561279,327
821.679871,314
821.798401,322
821.916931,311
822.035461,315
822.154053,317
822.272583,310
822.391174,319
822.509583,307
822.628174,316
822.746704,309
822.865234,324
822.983765,321
823.102295,305
823.220825,324
823.339294,308
823.457825,320
823.576355,328
823.694824,305
823.813354,317
823.931885,318
824.050354,319
824.168884,328
824.287354,320
824.405823,315
824.524353,308
824.642822,316
824.761353,317
824.879822,324
824.998291,302
825.116699,316
825.235291,314
825.353699,317
825.472168,317
825.590637,302
825.709106,308
825.827576,311
825.946045,314
826.064453,319
826.182983,311
826.301392,317
826.4198,292
826.53833,331
826.656738,312
826.775208,307
826.893677,331
827.012024,309
827.130493,314
827.248962,320
827.36731,316
827.485779,299
827.604248,320
827.722595,317
827.841064,310
827.959412,306
828.077942,318
828.196289,311
828.314636,320
828.433105,308
828.551514,311
828.669861,321
828.78833,318
828.906677,319
829.025085,321
829.143433,316
829.261841,325
829.38031,313
829.498657,318
829.617004,311
829.735413,314
829.85376,310
829.972107,316
830.090515,316
830.208862,328
830.327209,318
830.445557,312
830.563904,317
830.682312,309
830.800659,312
830.919006,313
831.037354,307
831.155701,318
831.274048,304
831.392395,314
831.51062,315
831.629028,309
831.747314,305
831.865662,317
831.984009,326
832.102356,310
832.220642,322
832.338928,321
832.457275,327
832.575623,309
832.693909,313
832.812134,306
832.930481,327
833.048828,293
833.167114,298
833.2854,310
833.403687,319
833.521973,298
833.640259,307
833.758545,315
833.876831,304
833.995056,304
834.113281,318
834.231628,323
834.349915,306
834.468201,309
834.586426,322
834.704651,314
834.822998,312
834.941162,306
835.059448,313
835.177673,309
835.295959,305
835.414246,313
835.53241,312
835.650635,312
835.768921,312
835.887146,312
836.005371,322
836.123596,315
836.241821,315
836.360046,315
836.478271,316
836.596497,312
836.714722,318
836.832886,314
836.95105,333
837.069336,317
837.1875,332
837.305725,307
837.423889,315
837.542053,315
837.660339,313
837.778503,325
837.896667,320
838.014832,324
838.132996,317
838.25116,312
838.369385,332
838.487488,319
838.605713,314
838.723877,325
838.84198,312
838.960205,325
839.078308,300
839.196472,315
839.314636,314
839.4328,304
839.550964,306
839.669067,309
839.787231,311
839.905396,320
840.023499,306
840.141602,304
840.259766,309
840.377869,306
840.495972,320
840.614136,306
840.732239,324
840.850342,318
840.968445,337
841.086548,315
841.204651,312
841.322754,329
841.440918,308
841.55896,314
841.677002,313
841.795166,302
841.913208,322
842.031311,309
842.149353,315
842.267456,314
842.385498,317
842.503601,323
842.621643,320
842.739746,320
842.857788,315
842.97583,309
843.093933,317
843.211975,310
843.330017,312
843.44812,318
843.566101,306
843.684204,305
843.802246,319
843.920227,316
844.038269,312
844.156311,302
844.274292,303
844.392395,318
844.510376,328
844.628357,330
844.74646,315
844.864441,309
844.982422,320
845.100403,309
845.218384,322
845.336426,309
845.454468,303
845.572449,308
845.69043,316
845.808411,311
845.926453,314
846.044373,316
846.162354,309
846.280396,299
846.398315,324
846.516296,312
846.634216,310
846.752197,318
846.870178,317
846.988098,310
847.106079,312
847.22406,313
847.34198,320
847.4599,312
847.577881,311
847.695801,303
847.813782,311
847.931641,319
848.049561,319
848.167603,316
848.285461,325
848.403381,320
848.521362,324
848.639221,313
848.75708,316
848.875,314
848.99292,319
849.110901,310
849.22876,311
849.34668,313
849.464539,320
849.582458,311
849.700317,325
849.818176,310
849.936096,318
850.053955,323
850.171875,316
850.289673,325
850.407593,314
850.525452,306
850.643311,308
850.761169,315
850.878967,310
850.996887,326
851.114746,317
851.232544,320
851.350403,327
851.468262,314
851.58606,327
851.703979,326
851.821777,321
851.939636,307
852.057434,312
852.175232,308
852.293091,312
852.410889,309
852.528687,330
852.646545,314
852.764343,309
852.88208,315
852.999939,313
853.117676,324
853.235535,325
853.353271,306
853.471069,314
853.588928,319
853.706604,328
853.824402,310
853.9422,313
854.059998,303
854.177734,314
854.295532,309
854.413269,326
854.531006,312
854.648804,312
854.766541,311
854.884277,309
855.002014,313
855.119751,302
855.237549,314
855.355225,298
855.473022,318
855.590698,317
855.708435,317
855.826172,311
855.943848,306
856.061646,321
856.179321,313
856.296997,308
856.414795,320
856.53241,326
856.650085,320
856.767822,313
856.885559,323
857.003174,311
857.120911,311
857.238586,318
857.356201,305
857.473938,323
857.591614,309
857.709351,313
857.826965,321
857.944641,314
858.062317,310
858.179993,313
858.297668,316
858.415283,317
858.532959,308
858.650574,320
858.768188,313
858.885803,312
859.003479,320
859.121094,309
859.23877,311
859.356384,327
859.473999,302
859.591675,326
859.709229,303
859.826843,314
859.944458,312
860.062012,325
860.179626,305
860.297302,312
860.414856,308
860.532471,307
860.650024,300
860.767639,323
860.885193,310
861.002808,313
861.120361,321
861.237976,306
861.35553,307
861.473022,318
861.590698,315
861.708191,318
861.825745,310
861.943298,321
862.060852,312
862.178406,309
862.295959,306
862.413513,314
862.531006,321
862.64856,310
862.766113,315
862.883667,310
863.00116,313
863.118713,327
863.236206,304
863.353699,315
863.471252,316
863.588745,334
863.706177,319
863.82373,312
863.941162,307
864.058716,310
864.176208,315
864.29364,320
864.411194,304
864.528687,319
864.646118,304
864.763611,311
864.881042,309
864.998535,316
865.116028,317
865.233459,322
865.350891,308
865.468384,327
865.585754,311
865.703308,317
865.820679,302
865.938171,330
866.055542,311
866.173035,314
866.290466,317
866.407837,309
866.52533,310
866.6427,317
866.760071,320
866.877563,321
866.994934,300
867.112305,309
867.229736,311
867.347107,316
867.464539,317
867.58197,315
867.699341,320
867.81665,334
867.934082,309
868.051453,308
868.168823,312
868.286194,325
868.403564,311
868.520935,316
868.638306,320
868.755676,308
868.872986,308
868.990295,320
869.107727,317
869.225037,307
869.342346,326
869.459717,310
869.577026,313
869.694336,310
869.811707,303
869.929016,311
870.046326,318
870.163635,313
870.280945,316
870.398254,305
870.515564,314
870.632812,324
870.750183,310
870.867432,320
870.984741,306
871.102051,322
871.219299,323
871.336609,319
871.453918,307
871.571106,322
871.688416,320
871.805664,314
871.922852,330
872.040222,317
872.157471,306
872.274719,316
872.391968,321
872.509155,315
872.626465,308
872.743652,323
872.860962,321
872.978149,319
873.095337,325
873.212646,313
873.329834,308
873.44696,324
873.564209,322
873.681396,319
873.798645,318
873.915894,309
874.03302,311
874.150208,319
874.267456,310
874.384583,307
874.501831,322
874.618958,310
874.736145,318
874.853333,328
874.970459,313
875.087646,312
875.204834,307
875.32196,319
875.439148,319
875.556274,312
875.673401,304
875.790527,318
875.907715,316
876.024841,310
876.141968,314
876.259094,306
876.376282,304
876.493347,316
876.610474,310
876.7276,323
876.844727,305
876.961853,318
877.078918,323
877.195984,315
877.313171,311
877.430237,313
877.547302,315
877.664368,311
877.781433,321
877.898499,312
878.015625,302
878.13269,319
878.249695,309
878.366821,314
878.483887,317
878.600952,323
878.717957,302
878.834961,307
878.952087,322
879.069092,313
879.186157,317
879.303162,318
879.420227,324
879.537231,311
879.654236,311
879.77124,324
879.888306,317
880.005249,319
880.122314,311
880.239319,328
880.356323,327
880.473328,304
880.590271,303
880.707275,309
880.824341,314
880.941284,313
881.058228,319
881.175232,313
881.292236,322
881.40918,316
881.526123,312
881.643066,319
881.760071,305
881.877014,314
881.993958,311
882.11084,322
882.227783,330
882.344727,300
882.46167,320
882.578613,330
882.695618,307
882.812439,329
882.929382,305
883.046326,316
883.163208,311
883.280151,310
883.397034,327
883.513916,316
883.630798,326
883.747742,311
883.864563,314
883.981506,321
884.098389,309
884.21521,325
884.332153,314
884.448975,298
884.565796,309
884.682678,314
884.7995,309
884.916443,318
885.033264,314
885.150085,305
885.266968,314
885.383789,324
885.500671,315
885.617493,310
885.734314,313
885.851196,314
885.967896,305
886.084717,313
886.201599,311
886.318359,314
886.435181,316
886.552002,320
886.668762,323
886.785645,317
886.902344,322
887.019165,308
887.135925,322
887.252747,320
887.369446,309
887.486267,307
887.603027,306
887.719788,324
887.836548,327
887.953247,311
888.070068,328
888.186829,319
888.303528,307
888.420288,313
888.536987,308
888.653687,322
888.770447,315
888.887146,332
889.003967,321
889.120667,310
889.237305,323
889.354065,316
889.470703,313
889.587463,314
889.704163,308
889.820862,318
889.937561,312
890.054199,324
890.170837,310
890.287598,315
890.404236,317
890.520874,319
890.637634,321
890.754211,299
890.87085,306
890.987549,318
891.104187,313
891.220886,313
891.337463,315
891.454102,317
891.57074,324
891.687378,317
891.804077,321
891.920654,308
892.037231,321
892.15387,321
892.270447,312
892.387085,317
892.503723,313
892.6203,328
892.736877,320
892.853516,315
892.970032,324
893.08667,324
893.203186,311
893.319763,316
893.43634,312
893.552917,312
893.669556,315
893.786011,315
893.902588,305
894.019165,318
894.135681,312
894.252197,327
894.368835,321
894.485291,324
894.601868,309
894.718384,321
894.8349,316
894.951355,319
895.067932,305
895.184448,305
895.300964,303
895.417419,317
895.533936,315
895.650452,330
895.766907,322
895.883423,328
895.999878,303
896.116333,302
896.232849,324
896.349304,314
896.465759,308
896.582214,303
896.698669,308
896.815125,314
896.931641,315
897.048035,309
897.164551,309
897.280884,315
897.397339,319
897.513794,306
897.630249,319
897.746582,328
897.863098,324
897.979431,326
898.095886,299
898.212341,329
898.328674,314
898.445129,304
898.561462,304
898.677795,310
898.794312,327
898.910645,314
899.026978,318
899.143433,310
899.259766,312
899.37616,326
899.492493,301
899.608765,309
899.725159,324
899.841553,308
899.957947,317
900.07428,318
900.190552,315
900.306946,320
900.423157,302
900.53949,319
900.655884,314
900.772156,312
900.888489,327
901.004822,306
901.121033,299
901.237366,309
901.353699,317
901.46991,336
901.586304,304
901.702515,323
901.818787,334
901.93512,318
902.051331,315
902.167603,317
902.283875,317
902.400085,310
902.516418,301
902.632629,318
902.74884,304
902.865112,312
902.981384,320
903.097595,316
903.213867,320
903.330017,312
903.446289,312
903.5625,310
903.67865,305
903.794922,311
903.911072,329
904.027344,319
904.143494,322
904.259705,326
904.375916,317
904.492065,314
904.608215,307
904.724426,319
904.840576,309
904.956726,320
905.072876,304
905.189087,322
905.305176,322
905.421387,318
905.537537,310
905.653687,318
905.769775,312
905.885925,303
906.002014,316
906.118164,330
906.234314,313
906.350403,315
906.466492,305
906.582642,317
906.69873,320
906.814758,306
906.930908,324
907.046936,318
907.163086,315
907.279175,329
907.395264,304
907.511353,320
907.62738,319
907.743408,317
907.859497,323
907.975525,302
908.091553,323
908.207703,332
908.32373,315
908.439758,316
908.555786,313
908.671814,318
908.787842,302
908.90387,312
909.019775,329
909.135864,311
909.251892,312
909.367859,331
909.483826,307
909.599854,326
909.715881,322
909.831848,318
909.947815,312
910.063782,316
910.179749,310
910.295776,324
910.411743,313
910.527649,319
910.643616,307
910.759583,327
910.875488,319
910.991455,321
911.107361,318
911.223267,328
911.339294,319
911.4552,333
911.571106,306
911.687073,316
911.802979,306
911.918823,321
912.034729,296
912.150635,314
912.266602,325
912.382446,321
912.498352,299
912.614197,321
912.730103,318
912.846008,329
