792.44574,310
792.56488,335
792.68396,389
792.80304,366
792.92218,321
793.041199,323
793.160339,312
793.279419,326
793.398499,319
793.517578,319
793.636658,320
793.755737,330
793.874817,340
793.993896,338
794.112976,330
794.232056,316
794.351074,314
794.470215,315
794.589233,318
794.708313,313
794.827393,315
794.946411,320
795.065552,326
795.18457,331
795.303589,329
795.422668,329
795.541687,315
795.660767,334
795.779846,320
795.898865,311
796.017883,324
796.136963,318
796.255981,334
796.375061,326
796.49408,316
796.613037,327
796.732117,319
796.851135,314
796.970154,330
797.089233,320
797.208191,314
797.327271,323
797.446228,323
797.565186,321
797.684265,323
797.803223,326
797.922241,329
798.04126,318
798.160278,312
798.279297,302
798.398315,323
798.517273,321
798.636292,313
798.75531,319
798.874268,322
798.993286,319
799.112244,318
799.231323,312
799.350281,320
799.469238,323
799.588257,313
799.707153,303
799.826111,323
799.945129,336
800.064087,318
800.183044,320
800.302063,309
800.421021,326
800.539978,315
800.658936,320
800.777893,316
800.896912,318
801.015747,318
801.134705,325
801.253723,316
801.37262,320
801.491638,309
801.610535,308
801.729492,319
801.84845,332
801.967407,326
802.086243,313
802.205261,325
802.324158,320
802.443115,316
802.562073,320
802.680969,318
802.799927,323
802.918762,309
803.037659,314
803.156677,321
803.275574,337
803.39447,332
803.513428,306
803.632263,312
803.751221,318
803.870117,328
803.989014,316
804.107971,318
804.226746,326
804.345642,310
804.4646,325
804.583496,315
804.702393,321
804.821228,311
804.940125,318
805.059021,329
805.177917,334
805.296814,314
805.415649,315
805.534546,314
805.653442,314
805.772278,329
805.891113,320
806.01001,315
806.128906,337
806.247742,325
806.366577,330
806.485413,322
806.604309,316
806.723145,319
806.84198,318
806.960876,320
807.079712,305
807.198486,313
807.317383,317
807.436218,317
807.554993,320
807.673889,330
807.792725,307
807.91156,330
808.030396,328
808.14917,320
808.268005,308
808.386841,312
808.505676,332
808.624451,315
808.743286,326
808.862122,333
808.980896,318
809.099731,319
809.218506,330
809.337341,318
809.456116,319
809.57489,319
809.693726,320
809.8125,326
809.931274,324
810.050049,313
810.168884,326
810.287659,317
810.406372,326
810.525269,315
810.643982,325
810.762756,320
810.881531,312
811.000305,309
811.11908,303
811.237854,314
811.356567,322
811.475403,313
811.594116,304
811.71283,326
811.831604,317
811.950378,319
812.069153,327
812.187927,325
812.30658,318
812.425415,317
812.544128,324
812.662781,322
812.781616,320
812.900269,322
813.019043,306
813.137756,303
813.256531,315
813.375244,321
813.493896,322
813.612671,328
813.731384,326
813.850037,302
813.96875,314
814.087524,312
814.206238,318
814.324951,322
814.443604,326
814.562256,324
814.68103,317
814.799683,315
814.918335,316
815.037109,330
815.155762,319
815.274475,303
815.393188,319
815.511841,313
815.630554,310
815.749146,325
815.867859,337
815.986572,319
816.105164,321
816.223877,314
816.342529,327
816.461182,321
816.579895,319
816.698486,318
816.817139,310
816.935791,317
817.054504,315
817.173096,322
817.291748,318
817.4104,318
817.529053,302
817.647644,325
817.766235,329
817.884949,316
818.00354,307
818.122192,325
818.240845,322
818.359436,320
818.478088,319
818.59668,322
818.715271,313
818.833923,316
818.952515,322
819.071106,326
819.189758,312
819.30835,311
819.426941,314
819.545532,315
819.664124,327
819.782715,325
819.901306,312
820.019897,320
820.138489,325
820.25708,303
820.375671,311
820.494202,313
820.612732,320
820.731384,306
820.849915,314
820.968506,313
821.087097,325
821.205627,311
821.324158,343
821.442749,303
821.561279,322
821.679871,324
821.798401,315
821.916931,317
822.035461,320
822.154053,319
822.272583,316
822.391174,326
822.509583,316
822.628174,315
822.746704,309
822.865234,324
822.983765,309
823.102295,322
823.220825,320
823.339294,303
823.457825,315
823.576355,310
823.694824,310
823.813354,309
823.931885,313
824.050354,315
824.168884,322
824.287354,325
824.405823,334
824.524353,311
824.642822,313
824.761353,321
824.879822,326
824.998291,311
825.116699,327
825.235291,325
825.353699,325
825.472168,308
825.590637,318
825.709106,309
825.827576,319
825.946045,323
826.064453,323
826.182983,308
826.301392,324
826.4198,330
826.53833,316
826.656738,323
826.775208,320
826.893677,309
827.012024,324
827.130493,320
827.248962,308
827.36731,322
827.485779,316
827.604248,317
827.722595,305
827.841064,320
827.959412,325
828.077942,318
828.196289,325
828.314636,312
828.433105,315
828.551514,304
828.669861,308
828.78833,315
828.906677,320
829.025085,312
829.143433,314
829.261841,326
829.38031,330
829.498657,311
829.617004,321
829.735413,317
829.85376,309
829.972107,313
830.090515,318
830.208862,313
830.327209,317
830.445557,322
830.563904,322
830.682312,320
830.800659,323
830.919006,309
831.037354,319
831.155701,317
831.274048,323
831.392395,325
831.51062,302
831.629028,318
831.747314,309
831.865662,318
831.984009,312
832.102356,310
832.220642,319
832.338928,310
832.457275,317
832.575623,306
832.693909,327
832.812134,302
832.930481,310
833.048828,302
833.167114,314
833.2854,306
833.403687,334
833.521973,314
833.640259,316
833.758545,320
833.876831,315
833.995056,303
834.113281,317
834.231628,315
834.349915,318
834.468201,316
834.586426,308
834.704651,308
834.822998,316
834.941162,313
835.059448,336
835.177673,298
835.295959,318
835.414246,321
835.53241,324
835.650635,309
835.768921,318
835.887146,314
836.005371,311
836.123596,328
836.241821,327
836.360046,316
836.478271,311
836.596497,316
836.714722,310
836.832886,321
836.95105,316
837.069336,325
837.1875,320
837.305725,316
837.423889,317
837.542053,311
837.660339,312
837.778503,331
837.896667,308
838.014832,318
838.132996,315
838.25116,310
838.369385,323
838.487488,314
838.605713,318
838.723877,313
838.84198,321
838.960205,314
839.078308,319
839.196472,293
839.314636,328
839.4328,321
839.550964,308
839.669067,314
839.787231,324
839.905396,307
840.023499,320
840.141602,321
840.259766,325
840.377869,318
840.495972,317
840.614136,325
840.732239,316
840.850342,318
840.968445,324
841.086548,324
841.204651,312
841.322754,310
841.440918,319
841.55896,316
841.677002,325
841.795166,320
841.913208,303
842.031311,322
842.149353,314
842.267456,303
842.385498,313
842.503601,320
842.621643,310
842.739746,321
842.857788,311
842.97583,312
843.093933,314
843.211975,325
843.330017,304
843.44812,333
843.566101,321
843.684204,330
843.802246,320
843.920227,313
844.038269,339
844.156311,321
844.274292,316
844.392395,313
844.510376,308
844.628357,314
844.74646,307
844.864441,323
844.982422,316
845.100403,319
845.218384,302
845.336426,305
845.454468,321
845.572449,322
845.69043,319
845.808411,312
845.926453,334
846.044373,322
846.162354,325
846.280396,314
846.398315,318
846.516296,322
846.634216,308
846.752197,322
846.870178,339
846.988098,315
847.106079,311
847.22406,296
847.34198,323
847.4599,310
847.577881,311
847.695801,320
847.813782,324
847.931641,325
848.049561,334
848.167603,308
848.285461,317
848.403381,333
848.521362,314
848.639221,324
848.75708,304
848.875,321
848.99292,319
849.110901,320
849.22876,317
849.34668,304
849.464539,315
849.582458,310
849.700317,311
849.818176,318
849.936096,322
850.053955,305
850.171875,320
850.289673,307
850.407593,326
850.525452,318
850.643311,317
850.761169,312
850.878967,317
850.996887,315
851.114746,321
851.232544,316
851.350403,326
851.468262,309
851.58606,312
851.703979,309
851.821777,317
851.939636,323
852.057434,316
852.175232,310
852.293091,310
852.410889,305
852.528687,317
852.646545,313
852.764343,313
852.88208,317
852.999939,315
853.117676,323
853.235535,319
853.353271,320
853.471069,315
853.588928,325
853.706604,311
853.824402,304
853.9422,314
854.059998,315
854.177734,322
854.295532,314
854.413269,313
854.531006,320
854.648804,313
854.766541,322
854.884277,316
855.002014,313
855.119751,313
855.237549,306
855.355225,334
855.473022,313
855.590698,304
855.708435,324
855.826172,308
855.943848,326
856.061646,311
856.179321,302
856.296997,315
856.414795,312
856.53241,324
856.650085,322
856.767822,322
856.885559,329
857.003174,317
857.120911,311
857.238586,309
857.356201,311
857.473938,316
857.591614,310
857.709351,316
857.826965,310
857.944641,312
858.062317,314
858.179993,320
858.297668,308
858.415283,318
858.532959,316
858.650574,322
858.768188,307
858.885803,318
859.003479,313
859.121094,317
859.23877,314
859.356384,321
859.473999,312
859.591675,322
859.709229,313
859.826843,321
859.944458,313
860.062012,318
860.179626,316
860.297302,335
860.414856,311
860.532471,313
860.650024,315
860.767639,313
860.885193,316
861.002808,321
861.120361,320
861.237976,311
861.35553,314
861.473022,317
861.590698,314
861.708191,316
861.825745,308
861.943298,310
862.060852,306
862.178406,330
862.295959,323
862.413513,317
862.531006,305
862.64856,328
862.766113,316
862.883667,301
863.00116,327
863.118713,313
863.236206,302
863.353699,319
863.471252,312
863.588745,330
863.706177,328
863.82373,323
863.941162,321
864.058716,309
864.176208,312
864.29364,321
864.411194,317
864.528687,322
864.646118,304
864.763611,321
864.881042,316
864.998535,316
865.116028,320
865.233459,314
865.350891,325
865.468384,325
865.585754,309
865.703308,324
865.820679,307
865.938171,314
866.055542,305
866.173035,318
866.290466,314
866.407837,312
866.52533,322
866.6427,316
866.760071,312
866.877563,319
866.994934,318
867.112305,327
867.229736,315
867.347107,305
867.464539,310
867.58197,305
867.699341,314
867.81665,314
867.934082,334
868.051453,333
868.168823,308
868.286194,316
868.403564,304
868.520935,324
868.638306,317
868.755676,316
868.872986,296
868.990295,309
869.107727,319
869.225037,326
869.342346,311
869.459717,311
869.577026,306
869.694336,301
869.811707,322
869.929016,317
870.046326,309
870.163635,310
870.280945,308
870.398254,324
870.515564,321
870.632812,319
870.750183,321
870.867432,321
870.984741,325
871.102051,321
871.219299,321
871.336609,336
871.453918,325
871.571106,329
871.688416,303
871.805664,312
871.922852,318
872.040222,320
872.157471,311
872.274719,305
872.391968,310
872.509155,320
872.626465,313
872.743652,313
872.860962,305
872.978149,323
873.095337,312
873.212646,323
873.329834,312
873.44696,311
873.564209,316
873.681396,319
873.798645,307
873.915894,312
874.03302,320
874.150208,323
874.267456,324
874.384583,314
874.501831,326
874.618958,311
874.736145,324
874.853333,303
874.970459,302
875.087646,329
875.204834,315
875.32196,329
875.439148,300
875.556274,323
875.673401,316
875.790527,320
875.907715,319
876.024841,313
876.141968,308
876.259094,316
876.376282,311
876.493347,318
876.610474,310
876.7276,312
876.844727,322
876.961853,319
877.078918,319
877.195984,308
877.313171,324
877.430237,321
877.547302,321
877.664368,309
877.781433,327
877.898499,335
878.015625,314
878.13269,326
878.249695,321
878.366821,319
878.483887,310
878.600952,326
878.717957,312
878.834961,327
878.952087,308
879.069092,322
879.186157,303
879.303162,319
879.420227,329
879.537231,313
879.654236,313
879.77124,324
879.888306,304
880.005249,306
880.122314,308
880.239319,310
880.356323,324
880.473328,312
880.590271,313
880.707275,315
880.824341,311
880.941284,321
881.058228,330
881.175232,340
881.292236,322
881.40918,319
881.526123,317
881.643066,312
881.760071,308
881.877014,310
881.993958,311
882.11084,315
882.227783,307
882.344727,319
882.46167,313
882.578613,320
882.695618,320
882.812439,311
882.929382,307
883.046326,316
883.163208,314
883.280151,328
883.397034,312
883.513916,334
883.630798,332
883.747742,324
883.864563,324
883.981506,328
884.098389,312
884.21521,317
884.332153,316
884.448975,320
884.565796,322
884.682678,338
884.7995,322
884.916443,317
885.033264,319
885.150085,313
885.266968,312
885.383789,320
885.500671,316
885.617493,324
885.734314,320
885.851196,309
885.967896,303
886.084717,302
886.201599,321
886.318359,320
886.435181,324
886.552002,322
886.668762,320
886.785645,308
886.902344,331
887.019165,327
887.135925,326
887.252747,324
887.369446,304
887.486267,312
887.603027,334
887.719788,323
887.836548,313
887.953247,326
888.070068,320
888.186829,326
888.303528,316
888.420288,321
888.536987,324
888.653687,300
888.770447,317
888.887146,319
889.003967,311
889.120667,303
889.237305,318
889.354065,322
889.470703,325
889.587463,323
889.704163,316
889.820862,311
889.937561,313
890.054199,305
890.170837,309
890.287598,305
890.404236,307
890.520874,332
890.637634,306
890.754211,325
890.87085,309
890.987549,324
891.104187,315
891.220886,324
891.337463,302
891.454102,318
891.57074,309
891.687378,318
891.804077,325
891.920654,307
892.037231,319
892.15387,317
892.270447,320
892.387085,327
892.503723,320
892.6203,321
892.736877,314
892.853516,334
892.970032,313
893.08667,293
893.203186,311
893.319763,320
893.43634,315
893.552917,314
893.669556,307
893.786011,318
893.902588,314
894.019165,320
894.135681,307
894.252197,316
894.368835,329
894.485291,307
894.601868,322
894.718384,312
894.8349,324
894.951355,320
895.067932,312
895.184448,314
895.300964,327
895.417419,311
895.533936,318
895.650452,311
895.766907,335
895.883423,312
895.999878,326
896.116333,313
896.232849,322
896.349304,332
896.465759,313
896.582214,317
896.698669,324
896.815125,314
896.931641,328
897.048035,321
897.164551,316
897.280884,307
897.397339,320
897.513794,319
897.630249,324
897.746582,318
897.863098,317
897.979431,325
898.095886,300
898.212341,328
898.328674,311
898.445129,332
898.561462,312
898.677795,316
898.794312,321
898.910645,318
899.026978,311
899.143433,317
899.259766,302
899.37616,326
899.492493,321
899.608765,313
899.725159,315
899.841553,312
899.957947,317
900.07428,318
900.190552,320
900.306946,318
900.423157,308
900.53949,330
900.655884,313
900.772156,307
900.888489,317
901.004822,327
901.121033,324
901.237366,319
901.353699,309
901.46991,326
901.586304,337
901.702515,317
901.818787,324
901.93512,322
902.051331,315
902.167603,316
902.283875,311
902.400085,324
902.516418,310
902.632629,313
902.74884,321
902.865112,313
902.981384,316
903.097595,317
903.213867,319
903.330017,328
903.446289,320
903.5625,311
903.67865,317
903.794922,323
903.911072,322
904.027344,313
904.143494,315
904.259705,314
904.375916,316
904.492065,315
904.608215,320
904.724426,305
904.840576,314
904.956726,319
905.072876,309
905.189087,332
905.305176,308
905.421387,321
905.537537,321
905.653687,312
905.769775,318
905.885925,322
906.002014,329
906.118164,305
906.234314,317
906.350403,318
906.466492,321
906.582642,310
906.69873,305
906.814758,340
906.930908,310
907.046936,307
907.163086,307
907.279175,320
907.395264,319
907.511353,317
907.62738,317
907.743408,311
907.859497,309
907.975525,317
908.091553,313
908.207703,311
908.32373,319
908.439758,312
908.555786,316
908.671814,319
908.787842,315
908.90387,319
909.019775,311
909.135864,319
909.251892,304
909.367859,324
909.483826,318
909.599854,313
909.715881,329
909.831848,314
909.947815,326
910.063782,316
910.179749,323
910.295776,329
910.411743,316
910.527649,323
910.643616,318
910.759583,319
910.875488,320
910.991455,312
911.107361,307
911.223267,320
911.339294,307
911.4552,316
911.571106,317
911.687073,315
911.802979,316
911.918823,320
912.034729,325
912.150635,337
912.266602,319
912.382446,313
912.498352,319
912.614197,314
912.730103,311
912.846008,306
792.44574,308
792.56488,325
792.68396,381
792.80304,370
792.92218,322
793.041199,310
793.160339,323
793.279419,320
793.398499,310
793.517578,318
793.636658,311
793.755737,328
793.874817,336
793.993896,336
794.112976,324
794.232056,329
794.351074,314
794.470215,324
794.589233,322
794.708313,314
794.827393,325
794.946411,344
795.065552,331
795.18457,326
795.303589,324
795.422668,312
795.541687,318
795.660767,329
795.779846,320
795.898865,319
796.017883,326
796.136963,322
796.255981,319
796.375061,332
796.49408,308
796.613037,327
796.732117,322
796.851135,332
796.970154,307
797.089233,339
797.208191,321
797.327271,327
797.446228,312
797.565186,319
797.684265,316
797.803223,327
797.922241,321
798.04126,332
798.160278,317
798.279297,324
798.398315,313
798.517273,318
798.636292,325
798.75531,321
798.874268,315
798.993286,328
799.112244,309
799.231323,331
799.350281,326
799.469238,315
799.588257,329
799.707153,333
799.826111,324
799.945129,328
800.064087,320
800.183044,327
800.302063,325
800.421021,311
800.539978,336
800.658936,331
800.777893,316
800.896912,320
801.015747,329
801.134705,316
801.253723,319
801.37262,316
801.491638,310
801.610535,317
801.729492,325
801.84845,318
801.967407,317
802.086243,306
802.205261,329
802.324158,319
802.443115,334
802.562073,323
802.680969,306
802.799927,319
802.918762,311
803.037659,324
803.156677,322
803.275574,314
803.39447,315
803.513428,325
803.632263,316
803.751221,327
803.870117,317
803.989014,342
804.107971,310
804.226746,328
804.345642,313
804.4646,318
804.583496,320
804.702393,311
804.821228,336
804.940125,327
805.059021,325
805.177917,326
805.296814,339
805.415649,328
805.534546,333
805.653442,317
805.772278,321
805.891113,316
806.01001,318
806.128906,313
806.247742,321
806.366577,314
806.485413,326
806.604309,324
806.723145,321
806.84198,327
806.960876,305
807.079712,324
807.198486,316
807.317383,322
807.436218,322
807.554993,317
807.673889,323
807.792725,326
807.91156,319
808.030396,316
808.14917,326
808.268005,315
808.386841,318
808.505676,319
808.624451,317
808.743286,325
808.862122,314
808.980896,327
809.099731,332
809.218506,311
809.337341,321
809.456116,330
809.57489,312
809.693726,326
809.8125,310
809.931274,325
810.050049,304
810.168884,323
810.287659,319
810.406372,312
810.525269,328
810.643982,324
810.762756,316
810.881531,313
811.000305,306
811.11908,335
811.237854,321
811.356567,317
811.475403,320
811.594116,316
811.71283,320
811.831604,319
811.950378,320
812.069153,310
812.187927,330
812.30658,329
812.425415,321
812.544128,321
812.662781,331
812.781616,311
812.900269,321
813.019043,316
813.137756,323
813.256531,323
813.375244,317
813.493896,331
813.612671,307
813.731384,314
813.850037,308
813.96875,323
814.087524,324
814.206238,326
814.324951,309
814.443604,321
814.562256,314
814.68103,313
814.799683,315
814.918335,320
815.037109,331
815.155762,324
815.274475,312
815.393188,319
815.511841,322
815.630554,325
815.749146,317
815.867859,321
815.986572,324
816.105164,325
816.223877,325
816.342529,316
816.461182,326
816.579895,308
816.698486,310
816.817139,323
816.935791,307
817.054504,313
817.173096,325
817.291748,317
817.4104,322
817.529053,306
817.647644,325
817.766235,319
817.884949,316
818.00354,314
818.122192,313
818.240845,314
818.359436,324
818.478088,326
818.59668,316
818.715271,316
818.833923,312
818.952515,325
819.071106,311
819.189758,307
819.30835,311
819.426941,320
819.545532,314
819.664124,311
819.782715,333
819.901306,317
820.019897,317
820.138489,318
820.25708,314
820.375671,313
820.494202,314
820.612732,305
820.731384,322
820.849915,301
820.968506,318
821.087097,314
821.205627,310
821.324158,325
821.442749,309
821.561279,315
821.679871,312
821.798401,317
821.916931,302
822.035461,325
822.154053,316
822.272583,313
822.391174,312
822.509583,327
822.628174,319
822.746704,311
822.865234,332
822.983765,320
823.102295,320
823.220825,316
823.339294,310
823.457825,320
823.576355,330
823.694824,313
823.813354,321
823.931885,305
824.050354,308
824.168884,326
824.287354,327
824.405823,309
824.524353,300
824.642822,316
824.761353,323
824.879822,314
824.998291,313
825.116699,334
825.235291,312
825.353699,308
825.472168,302
825.590637,320
825.709106,308
825.827576,319
825.946045,313
826.064453,316
826.182983,326
826.301392,318
826.4198,328
826.53833,307
826.656738,319
826.775208,324
826.893677,317
827.012024,327
827.130493,309
827.248962,319
827.36731,318
827.485779,313
827.604248,309
827.722595,319
827.841064,317
827.959412,322
828.077942,311
828.196289,328
828.314636,316
828.433105,310
828.551514,315
828.669861,307
828.78833,326
828.906677,324
829.025085,308
829.143433,335
829.261841,314
829.38031,315
829.498657,318
829.617004,317
829.735413,335
829.85376,320
829.972107,328
830.090515,316
830.208862,319
830.327209,328
830.445557,300
830.563904,304
830.682312,323
830.800659,310
830.919006,326
831.037354,315
831.155701,321
831.274048,340
831.392395,307
831.51062,312
831.629028,318
831.747314,322
831.865662,301
831.984009,314
832.102356,314
832.220642,317
832.338928,313
832.457275,309
832.575623,319
832.693909,322
832.812134,311
832.930481,316
833.048828,306
833.167114,308
833.2854,314
833.403687,328
833.521973,313
833.640259,319
833.758545,316
833.876831,324
833.995056,311
834.113281,308
834.231628,320
834.349915,322
834.468201,315
834.586426,305
834.704651,316
834.822998,319
834.941162,316
835.059448,319
835.177673,301
835.295959,316
835.414246,310
835.53241,314
835.650635,316
835.768921,318
835.887146,310
836.005371,330
836.123596,317
836.241821,322
836.360046,305
836.478271,311
836.596497,309
836.714722,314
836.832886,319
836.95105,327
837.069336,321
837.1875,329
837.305725,315
837.423889,312
837.542053,299
837.660339,317
837.778503,314
837.896667,305
838.014832,314
838.132996,314
838.25116,325
838.369385,329
838.487488,326
838.605713,318
838.723877,322
838.84198,322
838.960205,321
839.078308,303
839.196472,322
839.314636,322
839.4328,309
839.550964,322
839.669067,313
839.787231,317
839.905396,321
840.023499,323
840.141602,318
840.259766,317
840.377869,313
840.495972,331
840.614136,313
840.732239,295
840.850342,306
840.968445,313
841.086548,325
841.204651,312
841.322754,331
841.440918,306
841.55896,317
841.677002,318
841.795166,318
841.913208,328
842.031311,313
842.149353,321
842.267456,313
842.385498,326
842.503601,317
842.621643,316
842.739746,312
842.857788,306
842.97583,309
843.093933,323
843.211975,317
843.330017,313
843.44812,309
843.566101,310
843.684204,310
843.802246,318
843.920227,332
844.038269,314
844.156311,316
844.274292,335
844.392395,314
844.510376,295
844.628357,321
844.74646,321
844.864441,314
844.982422,323
845.100403,320
845.218384,328
845.336426,305
845.454468,313
845.572449,316
845.69043,318
845.808411,300
845.926453,310
846.044373,308
846.162354,324
846.280396,321
846.398315,302
846.516296,318
846.634216,320
846.752197,319
846.870178,330
846.988098,312
847.106079,312
847.22406,318
847.34198,316
847.4599,326
847.577881,312
847.695801,307
847.813782,310
847.931641,308
848.049561,332
848.167603,311
848.285461,325
848.403381,328
848.521362,314
848.639221,317
848.75708,316
848.875,312
848.99292,325
849.110901,310
849.22876,319
849.34668,319
849.464539,317
849.582458,310
849.700317,307
849.818176,332
849.936096,321
850.053955,313
850.171875,321
850.289673,316
850.407593,327
850.525452,314
850.643311,311
850.761169,305
850.878967,328
850.996887,297
851.114746,316
851.232544,326
851.350403,306
851.468262,320
851.58606,321
851.703979,310
851.821777,328
851.939636,324
852.057434,306
852.175232,316
852.293091,309
852.410889,319
852.528687,319
852.646545,307
852.764343,309
852.88208,321
852.999939,319
853.117676,305
853.235535,321
853.353271,306
853.471069,319
853.588928,313
853.706604,318
853.824402,314
853.9422,317
854.059998,306
854.177734,315
854.295532,324
854.413269,316
854.531006,325
854.648804,324
854.766541,306
854.884277,325
855.002014,306
855.119751,329
855.237549,318
855.355225,307
855.473022,315
855.590698,314
855.708435,323
855.826172,327
855.943848,308
856.061646,319
856.179321,315
856.296997,318
856.414795,305
856.53241,313
856.650085,314
856.767822,316
856.885559,323
857.003174,324
857.120911,315
857.238586,312
857.356201,312
857.473938,326
857.591614,308
857.709351,307
857.826965,314
857.944641,321
858.062317,309
858.179993,302
858.297668,312
858.415283,325
858.532959,323
858.650574,322
858.768188,331
858.885803,311
859.003479,317
859.121094,320
859.23877,321
859.356384,299
859.473999,313
859.591675,314
859.709229,316
859.826843,327
859.944458,315
860.062012,324
860.179626,319
860.297302,304
860.414856,319
860.532471,322
860.650024,309
860.767639,331
860.885193,318
861.002808,319
861.120361,312
861.237976,325
861.35553,311
861.473022,316
861.590698,320
861.708191,325
861.825745,313
861.943298,324
862.060852,319
862.178406,313
862.295959,312
862.413513,310
862.531006,312
862.64856,310
862.766113,311
862.883667,309
863.00116,321
863.118713,310
863.236206,319
863.353699,319
863.471252,309
863.588745,311
863.706177,309
863.82373,327
863.941162,323
864.058716,321
864.176208,327
864.29364,310
864.411194,326
864.528687,309
864.646118,313
864.763611,316
864.881042,306
864.998535,318
865.116028,319
865.233459,326
865.350891,309
865.468384,328
865.585754,312
865.703308,300
865.820679,317
865.938171,320
866.055542,320
866.173035,323
866.290466,316
866.407837,315
866.52533,316
866.6427,318
866.760071,310
866.877563,311
866.994934,316
867.112305,327
867.229736,314
867.347107,318
867.464539,325
867.58197,315
867.699341,309
867.81665,318
867.934082,323
868.051453,317
868.168823,317
868.286194,317
868.403564,308
868.520935,316
868.638306,309
868.755676,317
868.872986,312
868.990295,310
869.107727,305
869.225037,317
869.342346,320
869.459717,304
869.577026,308
869.694336,318
869.811707,309
869.929016,316
870.046326,323
870.163635,309
870.280945,314
870.398254,337
870.515564,307
870.632812,324
870.750183,310
870.867432,298
870.984741,331
871.102051,330
871.219299,309
871.336609,315
871.453918,313
871.571106,329
871.688416,323
871.805664,305
871.922852,313
872.040222,327
872.157471,319
872.274719,331
872.391968,333
872.509155,316
872.626465,308
872.743652,314
872.860962,314
872.978149,320
873.095337,317
873.212646,318
873.329834,315
873.44696,315
873.564209,316
873.681396,313
873.798645,316
873.915894,317
874.03302,307
874.150208,318
874.267456,311
874.384583,325
874.501831,309
874.618958,315
874.736145,303
874.853333,325
874.970459,302
875.087646,324
875.204834,310
875.32196,306
875.439148,318
875.556274,324
875.673401,318
875.790527,315
875.907715,314
876.024841,317
876.141968,312
876.259094,316
876.376282,309
876.493347,314
876.610474,311
876.7276,313
876.844727,316
876.961853,321
877.078918,313
877.195984,320
877.313171,315
877.430237,316
877.547302,314
877.664368,315
877.781433,326
877.898499,319
878.015625,315
878.13269,320
878.249695,313
878.366821,329
878.483887,300
878.600952,324
878.717957,308
878.834961,313
878.952087,312
879.069092,319
879.186157,308
879.303162,316
879.420227,335
879.537231,315
879.654236,312
879.77124,325
879.888306,317
880.005249,322
880.122314,323
880.239319,335
880.356323,322
880.473328,324
880.590271,309
880.707275,319
880.824341,316
880.941284,316
881.058228,312
881.175232,321
881.292236,316
881.40918,305
881.526123,326
881.643066,319
881.760071,310
881.877014,328
881.993958,311
882.11084,313
882.227783,325
882.344727,312
882.46167,329
882.578613,309
882.695618,315
882.812439,328
882.929382,308
883.046326,320
883.163208,322
883.280151,325
883.397034,317
883.513916,318
883.630798,316
883.747742,324
883.864563,317
883.981506,310
884.098389,313
884.21521,320
884.332153,311
884.448975,321
884.565796,321
884.682678,320
884.7995,324
884.916443,319
885.033264,324
885.150085,317
885.266968,305
885.383789,319
885.500671,315
885.617493,327
885.734314,311
885.851196,312
885.967896,318
886.084717,323
886.201599,330
886.318359,311
886.435181,319
886.552002,317
886.668762,322
886.785645,326
886.902344,317
887.019165,316
887.135925,325
887.252747,325
887.369446,317
887.486267,323
887.603027,305
887.719788,313
887.836548,312
887.953247,313
888.070068,321
888.186829,327
888.303528,307
888.420288,297
888.536987,328
888.653687,334
888.770447,311
888.887146,320
889.003967,322
889.120667,308
889.237305,305
889.354065,315
889.470703,311
889.587463,324
889.704163,297
889.820862,324
889.937561,318
890.054199,322
890.170837,313
890.287598,306
890.404236,321
890.520874,321
890.637634,319
890.754211,318
890.87085,322
890.987549,309
891.104187,314
891.220886,307
891.337463,322
891.454102,322
891.57074,321
891.687378,312
891.804077,315
891.920654,317
892.037231,314
892.15387,325
892.270447,321
892.387085,327
892.503723,305
892.6203,319
892.736877,329
892.853516,317
892.970032,304
893.08667,311
893.203186,324
893.319763,315
893.43634,303
893.552917,313
893.669556,311
893.786011,333
893.902588,317
894.019165,311
894.135681,326
894.252197,308
894.368835,316
894.485291,302
894.601868,315
894.718384,311
894.8349,302
894.951355,322
895.067932,308
895.184448,305
895.300964,313
895.417419,320
895.533936,320
895.650452,309
895.766907,315
895.883423,324
895.999878,300
896.116333,333
896.232849,326
896.349304,318
896.465759,316
896.582214,323
896.698669,322
896.815125,312
896.931641,315
897.048035,317
897.164551,302
897.280884,314
897.397339,317
897.513794,298
897.630249,322
897.746582,312
897.863098,319
897.979431,317
898.095886,310
898.212341,321
898.328674,324
898.445129,322
898.561462,325
898.677795,325
898.794312,335
898.910645,313
899.026978,331
899.143433,325
899.259766,321
899.37616,323
899.492493,319
899.608765,315
899.725159,324
899.841553,315
899.957947,316
900.07428,311
900.190552,317
900.306946,331
900.423157,323
900.53949,321
900.655884,308
900.772156,314
900.888489,313
901.004822,322
901.121033,310
901.237366,321
901.353699,315
901.46991,323
901.586304,324
901.702515,309
901.818787,321
901.93512,323
902.051331,325
902.167603,327
902.283875,318
902.400085,328
902.516418,326
902.632629,316
902.74884,293
902.865112,320
902.981384,309
903.097595,327
903.213867,314
903.330017,311
903.446289,299
903.5625,317
903.67865,334
903.794922,328
903.911072,316
904.027344,315
904.143494,313
904.259705,314
904.375916,321
904.492065,304
904.608215,307
904.724426,325
904.840576,316
904.956726,315
905.072876,312
905.189087,303
905.305176,313
905.421387,334
905.537537,323
905.653687,322
905.769775,324
905.885925,315
906.002014,316
906.118164,322
906.234314,318
906.350403,330
906.466492,315
906.582642,318
906.69873,306
906.814758,311
906.930908,314
907.046936,310
907.163086,315
907.279175,317
907.395264,310
907.511353,329
907.62738,316
907.743408,328
907.859497,325
907.975525,312
908.091553,325
908.207703,334
908.32373,315
908.439758,318
908.555786,308
908.671814,313
908.787842,316
908.90387,322
909.019775,310
909.135864,317
909.251892,316
909.367859,319
909.483826,322
909.599854,321
909.715881,319
909.831848,324
909.947815,307
910.063782,321
910.179749,318
910.295776,313
910.411743,312
910.527649,329
910.643616,321
910.759583,319
910.875488,319
910.991455,316
911.107361,323
911.223267,313
911.339294,322
911.4552,306
911.571106,322
911.687073,317
911.802979,322
911.918823,323
912.034729,304
912.150635,333
912.266602,309
912.382446,323
912.498352,306
912.614197,323
912.730103,328
912.846008,310
792.44574,301
792.56488,340
792.68396,386
792.80304,371
792.92218,330
793.041199,313
793.160339,303
793.279419,335
793.398499,323
793.517578,306
793.636658,320
793.755737,338
793.874817,337
793.993896,331
794.112976,326
794.232056,321
794.351074,324
794.470215,318
794.589233,325
794.708313,312
794.827393,331
794.946411,336
795.065552,330
795.18457,331
795.303589,327
795.422668,324
795.541687,322
795.660767,319
795.779846,314
795.898865,313
796.017883,313
796.136963,317
796.255981,321
796.375061,324
796.49408,320
796.613037,342
796.732117,333
796.851135,317
796.970154,327
797.089233,319
797.208191,322
797.327271,320
797.446228,308
797.565186,317
797.684265,334
797.803223,325
797.922241,322
798.04126,312
798.160278,325
798.279297,321
798.398315,312
798.517273,329
798.636292,324
798.75531,316
798.874268,319
798.993286,326
799.112244,322
799.231323,312
799.350281,338
799.469238,322
799.588257,321
799.707153,315
799.826111,331
799.945129,311
800.064087,324
800.183044,312
800.302063,318
800.421021,319
800.539978,319
800.658936,323
800.777893,345
800.896912,327
801.015747,324
801.134705,315
801.253723,321
801.37262,320
801.491638,310
801.610535,316
801.729492,332
801.84845,323
801.967407,308
802.086243,325
802.205261,317
802.324158,315
802.443115,319
802.562073,305
802.680969,323
802.799927,325
802.918762,320
803.037659,313
803.156677,325
803.275574,320
803.39447,329
803.513428,325
803.632263,324
803.751221,323
803.870117,334
803.989014,311
804.107971,328
804.226746,313
804.345642,316
804.4646,318
804.583496,331
804.702393,318
804.821228,324
804.940125,323
805.059021,317
805.177917,296
805.296814,329
805.415649,320
805.534546,319
805.653442,308
805.772278,320
805.891113,319
806.01001,322
806.128906,326
806.247742,332
806.366577,316
806.485413,327
806.604309,315
806.723145,327
806.84198,331
806.960876,317
807.079712,312
807.198486,335
807.317383,324
807.436218,320
807.554993,336
807.673889,324
807.792725,322
807.91156,329
808.030396,313
808.14917,315
808.268005,324
808.386841,318
808.505676,328
808.624451,319
808.743286,305
808.862122,331
808.980896,316
809.099731,328
809.218506,324
809.337341,316
809.456116,322
809.57489,329
809.693726,318
809.8125,321
809.931274,329
810.050049,319
810.168884,317
810.287659,320
810.406372,311
810.525269,315
810.643982,310
810.762756,322
810.881531,323
811.000305,326
811.11908,328
811.237854,334
811.356567,316
811.475403,320
811.594116,318
811.71283,324
811.831604,326
811.950378,322
812.069153,318
812.187927,321
812.30658,323
812.425415,325
812.544128,332
812.662781,326
812.781616,314
812.900269,324
813.019043,318
813.137756,330
813.256531,316
813.375244,323
813.493896,321
813.612671,324
813.731384,317
813.850037,329
813.96875,310
814.087524,324
814.206238,323
814.324951,324
814.443604,319
814.562256,316
814.68103,319
814.799683,308
814.918335,309
815.037109,333
815.155762,319
815.274475,323
815.393188,311
815.511841,317
815.630554,315
815.749146,322
815.867859,309
815.986572,316
816.105164,310
816.223877,320
816.342529,319
816.461182,338
816.579895,318
816.698486,310
816.817139,314
816.935791,319
817.054504,321
817.173096,335
817.291748,319
817.4104,317
817.529053,321
817.647644,325
817.766235,335
817.884949,322
818.00354,320
818.122192,315
818.240845,305
818.359436,324
818.478088,317
818.59668,317
818.715271,323
818.833923,318
818.952515,303
819.071106,312
819.189758,321
819.30835,328
819.426941,315
819.545532,305
819.664124,319
819.782715,313
819.901306,323
820.019897,301
820.138489,324
820.25708,304
820.375671,320
820.494202,314
820.612732,319
820.731384,319
820.849915,310
820.968506,329
821.087097,300
821.205627,334
821.324158,321
821.442749,330
821.561279,305
821.679871,324
821.798401,310
821.916931,323
822.035461,309
822.154053,336
822.272583,315
822.391174,328
822.509583,322
822.628174,329
822.746704,321
822.865234,307
822.983765,306
823.102295,317
823.220825,322
823.339294,328
823.457825,304
823.576355,329
823.694824,309
823.813354,305
823.931885,318
824.050354,316
824.168884,313
824.287354,324
824.405823,318
824.524353,336
824.642822,312
824.761353,323
824.879822,310
824.998291,313
825.116699,310
825.235291,314
825.353699,315
825.472168,320
825.590637,317
825.709106,319
825.827576,317
825.946045,324
826.064453,308
826.182983,318
826.301392,316
826.4198,327
826.53833,320
826.656738,320
826.775208,303
826.893677,327
827.012024,323
827.130493,316
827.248962,309
827.36731,309
827.485779,311
827.604248,326
827.722595,315
827.841064,333
827.959412,311
828.077942,310
828.196289,309
828.314636,309
828.433105,320
828.551514,316
828.669861,316
828.78833,315
828.906677,305
829.025085,308
829.143433,311
829.261841,321
829.38031,316
829.498657,315
829.617004,311
829.735413,320
829.85376,324
829.972107,316
830.090515,324
830.208862,308
830.327209,304
830.445557,324
830.563904,320
830.682312,305
830.800659,309
830.919006,320
831.037354,314
831.155701,308
831.274048,316
831.392395,322
831.51062,305
831.629028,338
831.747314,307
831.865662,335
831.984009,314
832.102356,320
832.220642,309
832.338928,319
832.457275,315
832.575623,312
832.693909,319
832.812134,328
832.930481,321
833.048828,323
833.167114,314
833.2854,323
833.403687,314
833.521973,329
833.640259,308
833.758545,328
833.876831,315
833.995056,321
834.113281,320
834.231628,312
834.349915,302
834.468201,326
834.586426,312
834.704651,315
834.822998,308
834.941162,317
835.059448,301
835.177673,321
835.295959,315
835.414246,313
835.53241,327
835.650635,310
835.768921,313
835.887146,307
836.005371,315
836.123596,319
836.241821,314
836.360046,332
836.478271,319
836.596497,306
836.714722,312
836.832886,297
836.95105,305
837.069336,325
837.1875,312
837.305725,325
837.423889,315
837.542053,329
837.660339,321
837.778503,309
837.896667,308
838.014832,311
838.132996,308
838.25116,313
838.369385,324
838.487488,325
838.605713,325
838.723877,320
838.84198,315
838.960205,310
839.078308,302
839.196472,305
839.314636,322
839.4328,318
839.550964,301
839.669067,313
839.787231,313
839.905396,323
840.023499,318
840.141602,299
840.259766,312
840.377869,319
840.495972,311
840.614136,323
840.732239,307
840.850342,325
840.968445,313
841.086548,328
841.204651,310
841.322754,324
841.440918,319
841.55896,309
841.677002,322
841.795166,308
841.913208,315
842.031311,310
842.149353,315
842.267456,311
842.385498,319
842.503601,314
842.621643,315
842.739746,313
842.857788,309
842.97583,323
843.093933,316
843.211975,315
843.330017,321
843.44812,334
843.566101,320
843.684204,319
843.802246,320
843.920227,312
844.038269,319
844.156311,308
844.274292,310
844.392395,319
844.510376,311
844.628357,319
844.74646,313
844.864441,308
844.982422,318
845.100403,303
845.218384,310
845.336426,308
845.454468,314
845.572449,314
845.69043,313
845.808411,326
845.926453,304
846.044373,325
846.162354,309
846.280396,322
846.398315,320
846.516296,327
846.634216,310
846.752197,331
846.870178,298
846.988098,327
847.106079,320
847.22406,320
847.34198,309
847.4599,304
847.577881,306
847.695801,313
847.813782,318
847.931641,323
848.049561,320
848.167603,312
848.285461,310
848.403381,311
848.521362,315
848.639221,324
848.75708,318
848.875,319
848.99292,318
849.110901,321
849.22876,317
849.34668,327
849.464539,313
849.582458,313
849.700317,320
849.818176,337
849.936096,318
850.053955,314
850.171875,328
850.289673,313
850.407593,320
850.525452,312
850.643311,324
850.761169,327
850.878967,314
850.996887,308
851.114746,304
851.232544,307
851.350403,316
851.468262,329
851.58606,307
851.703979,306
851.821777,318
851.939636,307
852.057434,301
852.175232,312
852.293091,327
852.410889,317
852.528687,312
852.646545,321
852.764343,316
852.88208,324
852.999939,305
853.117676,314
853.235535,310
853.353271,314
853.471069,312
853.588928,327
853.706604,314
853.824402,320
853.9422,310
854.059998,310
854.177734,309
854.295532,328
854.413269,318
854.531006,316
854.648804,314
854.766541,329
854.884277,320
855.002014,320
855.119751,298
855.237549,320
855.355225,322
855.473022,311
855.590698,314
855.708435,321
855.826172,316
855.943848,325
856.061646,315
856.179321,316
856.296997,312
856.414795,327
856.53241,317
856.650085,324
856.767822,311
856.885559,321
857.003174,315
857.120911,313
857.238586,302
857.356201,309
857.473938,313
857.591614,319
857.709351,316
857.826965,307
857.944641,310
858.062317,316
858.179993,301
858.297668,320
858.415283,316
858.532959,317
858.650574,320
858.768188,329
858.885803,314
859.003479,316
859.121094,315
859.23877,325
859.356384,319
859.473999,319
859.591675,319
859.709229,327
859.826843,303
859.944458,326
860.062012,316
860.179626,317
860.297302,310
860.414856,316
860.532471,310
860.650024,321
860.767639,319
860.885193,320
861.002808,314
861.120361,317
861.237976,318
861.35553,309
861.473022,315
861.590698,317
861.708191,318
861.825745,321
861.943298,312
862.060852,313
862.178406,307
862.295959,322
862.413513,308
862.531006,308
862.64856,319
862.766113,320
862.883667,303
863.00116,321
863.118713,311
863.236206,319
863.353699,309
863.471252,320
863.588745,311
863.706177,310
863.82373,305
863.941162,326
864.058716,322
864.176208,314
864.29364,320
864.411194,317
864.528687,311
864.646118,327
864.763611,317
864.881042,325
864.998535,320
865.116028,309
865.233459,313
865.350891,327
865.468384,303
865.585754,318
865.703308,316
865.820679,322
865.938171,304
866.055542,321
866.173035,334
866.290466,310
866.407837,315
866.52533,312
866.6427,309
866.760071,330
866.877563,323
866.994934,305
867.112305,325
867.229736,313
867.347107,321
867.464539,311
867.58197,299
867.699341,310
867.81665,309
867.934082,312
868.051453,311
868.168823,325
868.286194,323
868.403564,307
868.520935,310
868.638306,316
868.755676,316
868.872986,315
868.990295,309
869.107727,316
869.225037,309
869.342346,331
869.459717,311
869.577026,318
869.694336,317
869.811707,307
869.929016,316
870.046326,324
870.163635,317
870.280945,325
870.398254,312
870.515564,320
870.632812,320
870.750183,325
870.867432,310
870.984741,311
871.102051,316
871.219299,318
871.336609,304
871.453918,320
871.571106,300
871.688416,309
871.805664,314
871.922852,317
872.040222,316
872.157471,314
872.274719,312
872.391968,317
872.509155,301
872.626465,323
872.743652,309
872.860962,329
872.978149,310
873.095337,324
873.212646,303
873.329834,321
873.44696,321
873.564209,317
873.681396,322
873.798645,321
873.915894,307
874.03302,308
874.150208,305
874.267456,323
874.384583,302
874.501831,315
874.618958,314
874.736145,329
874.853333,305
874.970459,320
875.087646,309
875.204834,306
875.32196,323
875.439148,313
875.556274,321
875.673401,299
875.790527,322
875.907715,323
876.024841,305
876.141968,320
876.259094,316
876.376282,320
876.493347,306
876.610474,315
876.7276,311
876.844727,303
876.961853,304
877.078918,318
877.195984,313
877.313171,320
877.430237,311
877.547302,321
877.664368,329
877.781433,314
877.898499,310
878.015625,301
878.13269,314
878.249695,311
878.366821,317
878.483887,326
878.600952,310
878.717957,325
878.834961,316
878.952087,325
879.069092,318
879.186157,324
879.303162,321
879.420227,314
879.537231,305
879.654236,306
879.77124,302
879.888306,326
880.005249,310
880.122314,320
880.239319,330
880.356323,315
880.473328,311
880.590271,313
880.707275,310
880.824341,320
880.941284,309
881.058228,314
881.175232,322
881.292236,324
881.40918,312
881.526123,319
881.643066,325
881.760071,322
881.877014,312
881.993958,302
882.11084,315
882.227783,320
882.344727,312
882.46167,316
882.578613,320
882.695618,318
882.812439,307
882.929382,310
883.046326,305
883.163208,326
883.280151,315
883.397034,321
883.513916,304
883.630798,320
883.747742,311
883.864563,330
883.981506,318
884.098389,319
884.21521,312
884.332153,321
884.448975,319
884.565796,327
884.682678,309
884.7995,316
884.916443,300
885.033264,317
885.150085,312
885.266968,310
885.383789,307
885.500671,314
885.617493,318
885.734314,325
885.851196,308
885.967896,319
886.084717,311
886.201599,315
886.318359,324
886.435181,313
886.552002,323
886.668762,304
886.785645,320
886.902344,322
887.019165,324
887.135925,318
887.252747,316
887.369446,310
887.486267,325
887.603027,313
887.719788,316
887.836548,307
887.953247,312
888.070068,321
888.186829,327
888.303528,325
888.420288,303
888.536987,323
888.653687,318
888.770447,310
888.887146,314
889.003967,326
889.120667,309
889.237305,313
889.354065,303
889.470703,312
889.587463,331
889.704163,336
889.820862,303
889.937561,319
890.054199,304
890.170837,310
890.287598,312
890.404236,302
890.520874,313
890.637634,319
890.754211,301
890.87085,312
890.987549,314
891.104187,327
891.220886,307
891.337463,330
891.454102,308
891.57074,320
891.687378,314
891.804077,318
891.920654,320
892.037231,311
892.15387,312
892.270447,318
892.387085,312
892.503723,310
892.6203,317
892.736877,308
892.853516,313
892.970032,313
893.08667,318
893.203186,329
893.319763,308
893.43634,325
893.552917,321
893.669556,314
893.786011,319
893.902588,323
894.019165,303
894.135681,325
894.252197,312
894.368835,323
894.485291,323
894.601868,320
894.718384,310
894.8349,312
894.951355,311
895.067932,325
895.184448,315
895.300964,328
895.417419,316
895.533936,301
895.650452,313
895.766907,310
895.883423,307
895.999878,325
896.116333,318
896.232849,312
896.349304,326
896.465759,319
896.582214,316
896.698669,319
896.815125,309
896.931641,320
897.048035,310
897.164551,319
897.280884,319
897.397339,335
897.513794,318
897.630249,314
897.746582,304
897.863098,320
897.979431,317
898.095886,321
898.212341,293
898.328674,326
898.445129,303
898.561462,325
898.677795,317
898.794312,324
898.910645,320
899.026978,315
899.143433,309
899.259766,310
899.37616,316
899.492493,325
899.608765,315
899.725159,325
899.841553,311
899.957947,325
900.07428,323
900.190552,314
900.306946,306
900.423157,314
900.53949,312
900.655884,331
900.772156,320
900.888489,321
901.004822,323
901.121033,326
901.237366,320
901.353699,318
901.46991,315
901.586304,321
901.702515,314
901.818787,319
901.93512,292
902.051331,303
902.167603,320
902.283875,317
902.400085,303
902.516418,325
902.632629,320
902.74884,311
902.865112,314
902.981384,318
903.097595,302
903.213867,321
903.330017,315
903.446289,321
903.5625,316
903.67865,331
903.794922,302
903.911072,334
904.027344,313
904.143494,335
904.259705,323
904.375916,314
904.492065,300
904.608215,320
904.724426,310
904.840576,320
904.956726,329
905.072876,328
905.189087,314
905.305176,327
905.421387,309
905.537537,309
905.653687,324
905.769775,309
905.885925,313
906.002014,312
906.118164,315
906.234314,331
906.350403,317
906.466492,328
906.582642,324
906.69873,314
906.814758,314
906.930908,319
907.046936,323
907.163086,315
907.279175,323
907.395264,323
907.511353,321
907.62738,309
907.743408,324
907.859497,311
907.975525,322
908.091553,315
908.207703,321
908.32373,332
908.439758,324
908.555786,317
908.671814,302
908.787842,311
908.90387,323
909.019775,328
909.135864,306
909.251892,325
909.367859,320
909.483826,311
909.599854,305
909.715881,317
909.831848,313
909.947815,324
910.063782,318
910.179749,331
910.295776,324
910.411743,317
910.527649,326
910.643616,310
910.759583,318
910.875488,324
910.991455,304
911.107361,316
911.223267,313
911.339294,328
911.4552,314
911.571106,329
911.687073,313
911.802979,309
911.918823,318
912.034729,331
912.150635,302
912.266602,312
912.382446,308
912.498352,309
912.614197,307
912.730103,317
912.846008,311
