792.44574,314
792.56488,337
792.68396,404
792.80304,371
792.92218,335
793.041199,305
793.160339,309
793.279419,325
793.398499,324
793.517578,308
793.636658,321
793.755737,323
793.874817,352
793.993896,325
794.112976,335
794.232056,324
794.351074,320
794.470215,327
794.589233,324
794.708313,319
794.827393,321
794.946411,332
795.065552,346
795.18457,328
795.303589,340
795.422668,331
795.541687,312
795.660767,325
795.779846,319
795.898865,313
796.017883,323
796.136963,327
796.255981,331
796.375061,317
796.49408,323
796.613037,324
796.732117,330
796.851135,325
796.970154,327
797.089233,329
797.208191,321
797.327271,325
797.446228,331
797.565186,324
797.684265,313
797.803223,311
797.922241,321
798.04126,314
798.160278,335
798.279297,323
798.398315,312
798.517273,326
798.636292,332
798.75531,314
798.874268,326
798.993286,326
799.112244,315
799.231323,335
799.350281,322
799.469238,325
799.588257,333
799.707153,301
799.826111,330
799.945129,316
800.064087,340
800.183044,333
800.302063,308
800.421021,325
800.539978,316
800.658936,330
800.777893,315
800.896912,321
801.015747,318
801.134705,319
801.253723,320
801.37262,341
801.491638,318
801.610535,308
801.729492,322
801.84845,324
801.967407,331
802.086243,321
802.205261,327
802.324158,329
802.443115,317
802.562073,317
802.680969,326
802.799927,323
802.918762,324
803.037659,333
803.156677,330
803.275574,325
803.39447,328
803.513428,320
803.632263,319
803.751221,318
803.870117,323
803.989014,321
804.107971,322
804.226746,323
804.345642,324
804.4646,323
804.583496,315
804.702393,319
804.821228,320
804.940125,325
805.059021,317
805.177917,317
805.296814,316
805.415649,323
805.534546,312
805.653442,313
805.772278,312
805.891113,315
806.01001,312
806.128906,323
806.247742,322
806.366577,312
806.485413,317
806.604309,328
806.723145,325
806.84198,322
806.960876,324
807.079712,315
807.198486,322
807.317383,317
807.436218,316
807.554993,324
807.673889,326
807.792725,326
807.91156,330
808.030396,315
808.14917,323
808.268005,316
808.386841,324
808.505676,326
808.624451,328
808.743286,320
808.862122,326
808.980896,314
809.099731,324
809.218506,305
809.337341,332
809.456116,308
809.57489,323
809.693726,322
809.8125,329
809.931274,335
810.050049,307
810.168884,321
810.287659,328
810.406372,327
810.525269,324
810.643982,306
810.762756,313
810.881531,323
811.000305,313
811.11908,319
811.237854,318
811.356567,333
811.475403,321
811.594116,317
811.71283,323
811.831604,324
811.950378,330
812.069153,331
812.187927,309
812.30658,313
812.425415,311
812.544128,322
812.662781,323
812.781616,313
812.900269,328
813.019043,320
813.137756,327
813.256531,322
813.375244,309
813.493896,329
813.612671,321
813.731384,328
813.850037,314
813.96875,312
814.087524,317
814.206238,325
814.324951,330
814.443604,302
814.562256,323
814.68103,322
814.799683,316
814.918335,334
815.037109,321
815.155762,324
815.274475,322
815.393188,312
815.511841,328
815.630554,320
815.749146,323
815.867859,318
815.986572,326
816.105164,313
816.223877,336
816.342529,323
816.461182,324
816.579895,313
816.698486,319
816.817139,316
816.935791,319
817.054504,308
817.173096,323
817.291748,323
817.4104,325
817.529053,309
817.647644,321
817.766235,320
817.884949,313
818.00354,319
818.122192,324
818.240845,308
818.359436,323
818.478088,323
818.59668,311
818.715271,301
818.833923,328
818.952515,315
819.071106,308
819.189758,316
819.30835,307
819.426941,323
819.545532,305
819.664124,322
819.782715,323
819.901306,314
820.019897,323
820.138489,323
820.25708,322
820.375671,313
820.494202,313
820.612732,323
820.731384,319
820.849915,299
820.968506,320
821.087097,322
821.205627,335
821.324158,304
821.442749,323
821.561279,305
821.679871,303
821.798401,322
821.916931,318
822.035461,311
822.154053,319
822.272583,313
822.391174,310
822.509583,318
822.628174,316
822.746704,326
822.865234,319
822.983765,310
823.102295,325
823.220825,314
823.339294,318
823.457825,302
823.576355,328
823.694824,319
823.813354,329
823.931885,324
824.050354,319
824.168884,313
824.287354,308
824.405823,313
824.524353,319
824.642822,316
824.761353,323
824.879822,319
824.998291,307
825.116699,335
825.235291,320
825.353699,305
825.472168,332
825.590637,310
825.709106,316
825.827576,311
825.946045,322
826.064453,305
826.182983,315
826.301392,312
826.4198,300
826.53833,317
826.656738,328
826.775208,314
826.893677,321
827.012024,318
827.130493,325
827.248962,317
827.36731,321
827.485779,328
827.604248,325
827.722595,299
827.841064,309
827.959412,312
828.077942,316
828.196289,313
828.314636,317
828.433105,323
828.551514,327
828.669861,306
828.78833,310
828.906677,318
829.025085,311
829.143433,312
829.261841,312
829.38031,323
829.498657,301
829.617004,315
829.735413,325
829.85376,316
829.972107,328
830.090515,313
830.208862,302
830.327209,321
830.445557,314
830.563904,311
830.682312,317
830.800659,312
830.919006,326
831.037354,304
831.155701,339
831.274048,307
831.392395,319
831.51062,324
831.629028,311
831.747314,312
831.865662,326
831.984009,311
832.102356,310
832.220642,303
832.338928,316
832.457275,324
832.575623,322
832.693909,314
832.812134,321
832.930481,322
833.048828,324
833.167114,313
833.2854,306
833.403687,315
833.521973,317
833.640259,327
833.758545,321
833.876831,307
833.995056,331
834.113281,306
834.231628,313
834.349915,313
834.468201,322
834.586426,307
834.704651,316
834.822998,306
834.941162,329
835.059448,307
835.177673,314
835.295959,318
835.414246,302
835.53241,316
835.650635,330
835.768921,316
835.887146,323
836.005371,305
836.123596,326
836.241821,311
836.360046,327
836.478271,307
836.596497,314
836.714722,316
836.832886,323
836.95105,316
837.069336,309
837.1875,314
837.305725,316
837.423889,309
837.542053,309
837.660339,305
837.778503,328
837.896667,320
838.014832,328
838.132996,316
838.25116,319
838.369385,320
838.487488,321
838.605713,320
838.723877,309
838.84198,311
838.960205,310
839.078308,328
839.196472,319
839.314636,321
839.4328,301
839.550964,305
839.669067,324
839.787231,319
839.905396,314
840.023499,310
840.141602,315
840.259766,312
840.377869,322
840.495972,305
840.614136,320
840.732239,318
840.850342,318
840.968445,327
841.086548,310
841.204651,317
841.322754,318
841.440918,321
841.55896,314
841.677002,312
841.795166,318
841.913208,315
842.031311,323
842.149353,296
842.267456,315
842.385498,306
842.503601,320
842.621643,307
842.739746,317
842.857788,311
842.97583,319
843.093933,294
843.211975,334
843.330017,314
843.44812,307
843.566101,322
843.684204,311
843.802246,308
843.920227,320
844.038269,313
844.156311,310
844.274292,322
844.392395,306
844.510376,318
844.628357,312
844.74646,320
844.864441,311
844.982422,305
845.100403,325
845.218384,304
845.336426,323
845.454468,318
845.572449,322
845.69043,320
845.808411,324
845.926453,311
846.044373,322
846.162354,302
846.280396,319
846.398315,310
846.516296,324
846.634216,312
846.752197,310
846.870178,316
846.988098,314
847.106079,303
847.22406,315
847.34198,314
847.4599,321
847.577881,305
847.695801,309
847.813782,320
847.931641,326
848.049561,316
848.167603,317
848.285461,309
848.403381,319
848.521362,318
848.639221,319
848.75708,325
848.875,315
848.99292,322
849.110901,327
849.22876,314
849.34668,321
849.464539,304
849.582458,324
849.700317,306
849.818176,317
849.936096,301
850.053955,313
850.171875,311
850.289673,312
850.407593,304
850.525452,328
850.643311,309
850.761169,327
850.878967,310
850.996887,327
851.114746,301
851.232544,308
851.350403,308
851.468262,328
851.58606,301
851.703979,319
851.821777,312
851.939636,322
852.057434,299
852.175232,308
852.293091,311
852.410889,311
852.528687,326
852.646545,328
852.764343,316
852.88208,327
852.999939,325
853.117676,318
853.235535,309
853.353271,317
853.471069,311
853.588928,321
853.706604,315
853.824402,325
853.9422,310
854.059998,333
854.177734,308
854.295532,319
854.413269,319
854.531006,319
854.648804,309
854.766541,314
854.884277,306
855.002014,314
855.119751,317
855.237549,319
855.355225,316
855.473022,310
855.590698,316
855.708435,314
855.826172,322
855.943848,321
856.061646,310
856.179321,305
856.296997,310
856.414795,320
856.53241,316
856.650085,341
856.767822,308
856.885559,324
857.003174,314
857.120911,311
857.238586,306
857.356201,313
857.473938,315
857.591614,311
857.709351,316
857.826965,324
857.944641,310
858.062317,319
858.179993,298
858.297668,301
858.415283,311
858.532959,316
858.650574,313
858.768188,324
858.885803,319
859.003479,331
859.121094,313
859.23877,316
859.356384,312
859.473999,312
859.591675,317
859.709229,329
859.826843,324
859.944458,304
860.062012,306
860.179626,329
860.297302,316
860.414856,328
860.532471,316
860.650024,315
860.767639,309
860.885193,308
861.002808,306
861.120361,314
861.237976,315
861.35553,313
861.473022,306
861.590698,307
861.708191,316
861.825745,319
861.943298,320
862.060852,316
862.178406,313
862.295959,311
862.413513,323
862.531006,331
862.64856,307
862.766113,322
862.883667,316
863.00116,302
863.118713,311
863.236206,313
863.353699,321
863.471252,309
863.588745,301
863.706177,307
863.82373,308
863.941162,304
864.058716,317
864.176208,309
864.29364,316
864.411194,309
864.528687,313
864.646118,324
864.763611,312
864.881042,321
864.998535,311
865.116028,322
865.233459,317
865.350891,304
865.468384,301
865.585754,324
865.703308,313
865.820679,326
865.938171,306
866.055542,315
866.173035,295
866.290466,317
866.407837,316
866.52533,318
866.6427,315
866.760071,307
866.877563,312
866.994934,309
867.112305,315
867.229736,329
867.347107,299
867.464539,335
867.58197,301
867.699341,317
867.81665,322
867.934082,317
868.051453,328
868.168823,323
868.286194,302
868.403564,312
868.520935,305
868.638306,309
868.755676,320
868.872986,319
868.990295,301
869.107727,341
869.225037,318
869.342346,314
869.459717,320
869.577026,315
869.694336,321
869.811707,323
869.929016,306
870.046326,325
870.163635,305
870.280945,326
870.398254,333
870.515564,326
870.632812,308
870.750183,323
870.867432,311
870.984741,328
871.102051,305
871.219299,314
871.336609,316
871.453918,316
871.571106,308
871.688416,319
871.805664,309
871.922852,314
872.040222,300
872.157471,315
872.274719,314
872.391968,300
872.509155,314
872.626465,320
872.743652,325
872.860962,310
872.978149,305
873.095337,320
873.212646,303
873.329834,324
873.44696,309
873.564209,315
873.681396,326
873.798645,337
873.915894,313
874.03302,330
874.150208,314
874.267456,322
874.384583,316
874.501831,319
874.618958,306
874.736145,319
874.853333,315
874.970459,320
875.087646,311
875.204834,330
875.32196,307
875.439148,322
875.556274,303
875.673401,323
875.790527,298
875.907715,307
876.024841,310
876.141968,317
876.259094,322
876.376282,318
876.493347,325
876.610474,332
876.7276,305
876.844727,323
876.961853,320
877.078918,311
877.195984,305
877.313171,322
877.430237,305
877.547302,318
877.664368,308
877.781433,315
877.898499,315
878.015625,320
878.13269,324
878.249695,315
878.366821,309
878.483887,322
878.600952,318
878.717957,312
878.834961,317
878.952087,318
879.069092,324
879.186157,322
879.303162,321
879.420227,326
879.537231,320
879.654236,309
879.77124,315
879.888306,323
880.005249,308
880.122314,318
880.239319,326
880.356323,331
880.473328,299
880.590271,316
880.707275,310
880.824341,304
880.941284,333
881.058228,323
881.175232,326
881.292236,311
881.40918,319
881.526123,310
881.643066,316
881.760071,316
881.877014,322
881.993958,318
882.11084,313
882.227783,315
882.344727,316
882.46167,319
882.578613,310
882.695618,304
882.812439,310
882.929382,316
883.046326,307
883.163208,328
883.280151,322
883.397034,320
883.513916,321
883.630798,306
883.747742,310
883.864563,327
883.981506,315
884.098389,321
884.21521,319
884.332153,308
884.448975,318
884.565796,303
884.682678,307
884.7995,319
884.916443,302
885.033264,328
885.150085,310
885.266968,328
885.383789,322
885.500671,317
885.617493,315
885.734314,327
885.851196,312
885.967896,332
886.084717,309
886.201599,324
886.318359,318
886.435181,310
886.552002,308
886.668762,319
886.785645,318
886.902344,319
887.019165,313
887.135925,318
887.252747,311
887.369446,329
887.486267,322
887.603027,319
887.719788,324
887.836548,321
887.953247,301
888.070068,318
888.186829,313
888.303528,317
888.420288,330
888.536987,328
888.653687,315
888.770447,319
888.887146,307
889.003967,316
889.120667,322
889.237305,317
889.354065,310
889.470703,304
889.587463,315
889.704163,335
889.820862,324
889.937561,315
890.054199,322
890.170837,316
890.287598,327
890.404236,316
890.520874,310
890.637634,314
890.754211,317
890.87085,333
890.987549,319
891.104187,313
891.220886,316
891.337463,323
891.454102,314
891.57074,322
891.687378,318
891.804077,318
891.920654,295
892.037231,315
892.15387,313
892.270447,325
892.387085,315
892.503723,321
892.6203,331
892.736877,319
892.853516,329
892.970032,320
893.08667,317
893.203186,327
893.319763,310
893.43634,309
893.552917,310
893.669556,326
893.786011,311
893.902588,336
894.019165,304
894.135681,310
894.252197,301
894.368835,320
894.485291,323
894.601868,316
894.718384,305
894.8349,323
894.951355,323
895.067932,336
895.184448,310
895.300964,311
895.417419,308
895.533936,307
895.650452,324
895.766907,307
895.883423,298
895.999878,328
896.116333,310
896.232849,327
896.349304,315
896.465759,316
896.582214,316
896.698669,321
896.815125,314
896.931641,331
897.048035,326
897.164551,331
897.280884,306
897.397339,324
897.513794,328
897.630249,322
897.746582,323
897.863098,324
897.979431,309
898.095886,311
898.212341,308
898.328674,322
898.445129,316
898.561462,321
898.677795,320
898.794312,316
898.910645,304
899.026978,329
899.143433,310
899.259766,305
899.37616,302
899.492493,320
899.608765,319
899.725159,318
899.841553,327
899.957947,315
900.07428,300
900.190552,321
900.306946,318
900.423157,318
900.53949,326
900.655884,318
900.772156,315
900.888489,328
901.004822,320
901.121033,321
901.237366,317
901.353699,337
901.46991,316
901.586304,317
901.702515,311
901.818787,314
901.93512,306
902.051331,305
902.167603,332
902.283875,329
902.400085,306
902.516418,321
902.632629,314
902.74884,311
902.865112,318
902.981384,314
903.097595,328
903.213867,317
903.330017,316
903.446289,326
903.5625,307
903.67865,319
903.794922,306
903.911072,318
904.027344,307
904.143494,324
904.259705,320
904.375916,329
904.492065,308
904.608215,312
904.724426,315
904.840576,324
904.956726,317
905.072876,317
905.189087,317
905.305176,320
905.421387,324
905.537537,313
905.653687,315
905.769775,313
905.885925,301
906.002014,327
906.118164,320
906.234314,308
906.350403,328
906.466492,318
906.582642,308
906.69873,331
906.814758,314
906.930908,327
907.046936,307
907.163086,318
907.279175,319
907.395264,329
907.511353,317
907.62738,323
907.743408,324
907.859497,323
907.975525,304
908.091553,334
908.207703,320
908.32373,321
908.439758,316
908.555786,321
908.671814,315
908.787842,333
908.90387,308
909.019775,328
909.135864,314
909.251892,328
909.367859,304
909.483826,320
909.599854,326
909.715881,313
909.831848,318
909.947815,324
910.063782,315
910.179749,335
910.295776,309
910.411743,324
910.527649,311
910.643616,334
910.759583,315
910.875488,324
910.991455,324
911.107361,318
911.223267,311
911.339294,324
911.4552,300
911.571106,314
911.687073,313
911.802979,331
911.918823,315
912.034729,304
912.150635,307
912.266602,312
912.382446,303
912.498352,322
912.614197,311
912.730103,314
912.846008,308
792.44574,305
792.56488,344
792.68396,390
792.80304,371
792.92218,330
793.041199,304
793.160339,312
793.279419,330
793.398499,322
793.517578,313
793.636658,319
793.755737,328
793.874817,346
793.993896,343
794.112976,329
794.232056,330
794.351074,319
794.470215,312
794.589233,337
794.708313,310
794.827393,338
794.946411,320
795.065552,345
795.18457,340
795.303589,316
795.422668,323
795.541687,320
795.660767,322
795.779846,331
795.898865,319
796.017883,323
796.136963,326
796.255981,321
796.375061,331
796.49408,321
796.613037,322
796.732117,315
796.851135,335
796.970154,318
797.089233,330
797.208191,325
797.327271,320
797.446228,330
797.565186,301
797.684265,336
797.803223,308
797.922241,318
798.04126,335
798.160278,322
798.279297,324
798.398315,323
798.517273,331
798.636292,330
798.75531,326
798.874268,325
798.993286,320
799.112244,320
799.231323,326
799.350281,312
799.469238,340
799.588257,320
799.707153,315
799.826111,330
799.945129,327
800.064087,333
800.183044,305
800.302063,319
800.421021,321
800.539978,330
800.658936,315
800.777893,315
800.896912,325
801.015747,316
801.134705,329
801.253723,319
801.37262,330
801.491638,320
801.610535,312
801.729492,315
801.84845,328
801.967407,316
802.086243,316
802.205261,314
802.324158,324
802.443115,328
802.562073,321
802.680969,325
802.799927,321
802.918762,318
803.037659,334
803.156677,320
803.275574,316
803.39447,323
803.513428,333
803.632263,316
803.751221,324
803.870117,312
803.989014,321
804.107971,329
804.226746,325
804.345642,339
804.4646,325
804.583496,331
804.702393,330
804.821228,312
804.940125,322
805.059021,318
805.177917,320
805.296814,325
805.415649,324
805.534546,327
805.653442,304
805.772278,315
805.891113,331
806.01001,317
806.128906,307
806.247742,326
806.366577,336
806.485413,331
806.604309,332
806.723145,323
806.84198,325
806.960876,318
807.079712,327
807.198486,328
807.317383,322
807.436218,321
807.554993,331
807.673889,321
807.792725,334
807.91156,323
808.030396,330
808.14917,328
808.268005,321
808.386841,330
808.505676,304
808.624451,318
808.743286,314
808.862122,316
808.980896,316
809.099731,315
809.218506,320
809.337341,321
809.456116,306
809.57489,324
809.693726,304
809.8125,315
809.931274,325
810.050049,315
810.168884,319
810.287659,320
810.406372,323
810.525269,320
810.643982,316
810.762756,320
810.881531,329
811.000305,327
811.11908,318
811.237854,329
811.356567,332
811.475403,319
811.594116,308
811.71283,324
811.831604,322
811.950378,330
812.069153,328
812.187927,308
812.30658,319
812.425415,327
812.544128,316
812.662781,326
812.781616,330
812.900269,336
813.019043,320
813.137756,338
813.256531,321
813.375244,315
813.493896,324
813.612671,320
813.731384,314
813.850037,319
813.96875,304
814.087524,310
814.206238,340
814.324951,323
814.443604,338
814.562256,315
814.68103,298
814.799683,321
814.918335,324
815.037109,326
815.155762,321
815.274475,325
815.393188,312
815.511841,325
815.630554,314
815.749146,314
815.867859,318
815.986572,313
816.105164,326
816.223877,322
816.342529,328
816.461182,318
816.579895,324
816.698486,331
816.817139,320
816.935791,312
817.054504,329
817.173096,332
817.291748,313
817.4104,324
817.529053,318
817.647644,319
817.766235,329
817.884949,330
818.00354,304
818.122192,320
818.240845,320
818.359436,313
818.478088,306
818.59668,323
818.715271,308
818.833923,314
818.952515,318
819.071106,330
819.189758,304
819.30835,327
819.426941,318
819.545532,322
819.664124,325
819.782715,327
819.901306,323
820.019897,304
820.138489,344
820.25708,319
820.375671,322
820.494202,322
820.612732,317
820.731384,308
820.849915,317
820.968506,316
821.087097,324
821.205627,327
821.324158,311
821.442749,319
821.561279,325
821.679871,317
821.798401,315
821.916931,311
822.035461,316
822.154053,331
822.272583,309
822.391174,308
822.509583,317
822.628174,324
822.746704,318
822.865234,305
822.983765,316
823.102295,319
823.220825,318
823.339294,314
823.457825,326
823.576355,311
823.694824,310
823.813354,318
823.931885,314
824.050354,315
824.168884,332
824.287354,315
824.405823,317
824.524353,315
824.642822,316
824.761353,309
824.879822,315
824.998291,327
825.116699,322
825.235291,312
825.353699,318
825.472168,318
825.590637,326
825.709106,311
825.827576,307
825.946045,317
826.064453,312
826.182983,314
826.301392,320
826.4198,332
826.53833,314
826.656738,321
826.775208,327
826.893677,314
827.012024,326
827.130493,329
827.248962,318
827.36731,332
827.485779,306
827.604248,313
827.722595,312
827.841064,315
827.959412,313
828.077942,313
828.196289,335
828.314636,311
828.433105,309
828.551514,312
828.669861,316
828.78833,297
828.906677,328
829.025085,307
829.143433,322
829.261841,313
829.38031,324
829.498657,308
829.617004,320
829.735413,312
829.85376,307
829.972107,308
830.090515,313
830.208862,317
830.327209,321
830.445557,324
830.563904,318
830.682312,318
830.800659,324
830.919006,313
831.037354,320
831.155701,314
831.274048,322
831.392395,324
831.51062,317
831.629028,319
831.747314,309
831.865662,323
831.984009,312
832.102356,315
832.220642,313
832.338928,318
832.457275,315
832.575623,312
832.693909,320
832.812134,321
832.930481,323
833.048828,324
833.167114,311
833.2854,323
833.403687,311
833.521973,310
833.640259,319
833.758545,318
833.876831,321
833.995056,306
834.113281,310
834.231628,322
834.349915,317
834.468201,312
834.586426,318
834.704651,310
834.822998,323
834.941162,300
835.059448,303
835.177673,301
835.295959,318
835.414246,318
835.53241,324
835.650635,309
835.768921,307
835.887146,319
836.005371,320
836.123596,303
836.241821,320
836.360046,297
836.478271,330
836.596497,322
836.714722,313
836.832886,310
836.95105,316
837.069336,305
837.1875,321
837.305725,316
837.423889,309
837.542053,316
837.660339,314
837.778503,309
837.896667,326
838.014832,332
838.132996,320
838.25116,314
838.369385,310
838.487488,314
838.605713,323
838.723877,316
838.84198,322
838.960205,318
839.078308,301
839.196472,322
839.314636,309
839.4328,308
839.550964,310
839.669067,320
839.787231,323
839.905396,307
840.023499,330
840.141602,313
840.259766,317
840.377869,325
840.495972,318
840.614136,309
840.732239,325
840.850342,320
840.968445,316
841.086548,318
841.204651,318
841.322754,308
841.440918,328
841.55896,319
841.677002,320
841.795166,322
841.913208,315
842.031311,306
842.149353,301
842.267456,301
842.385498,325
842.503601,321
842.621643,315
842.739746,319
842.857788,309
842.97583,305
843.093933,318
843.211975,308
843.330017,324
843.44812,311
843.566101,316
843.684204,324
843.802246,320
843.920227,312
844.038269,302
844.156311,326
844.274292,321
844.392395,319
844.510376,321
844.628357,324
844.74646,320
844.864441,306
844.982422,312
845.100403,320
845.218384,325
845.336426,312
845.454468,331
845.572449,312
845.69043,299
845.808411,317
845.926453,312
846.044373,310
846.162354,309
846.280396,323
846.398315,322
846.516296,304
846.634216,320
846.752197,311
846.870178,307
846.988098,320
847.106079,307
847.22406,307
847.34198,306
847.4599,317
847.577881,308
847.695801,304
847.813782,325
847.931641,315
848.049561,332
848.167603,307
848.285461,312
848.403381,314
848.521362,323
848.639221,315
848.75708,307
848.875,319
848.99292,319
849.110901,315
849.22876,323
849.34668,325
849.464539,311
849.582458,328
849.700317,326
849.818176,324
849.936096,314
850.053955,317
850.171875,326
850.289673,316
850.407593,316
850.525452,325
850.643311,309
850.761169,305
850.878967,325
850.996887,321
851.114746,328
851.232544,319
851.350403,317
851.468262,306
851.58606,316
851.703979,323
851.821777,309
851.939636,320
852.057434,318
852.175232,329
852.293091,316
852.410889,308
852.528687,309
852.646545,309
852.764343,323
852.88208,310
852.999939,311
853.117676,314
853.235535,327
853.353271,311
853.471069,330
853.588928,301
853.706604,319
853.824402,311
853.9422,325
854.059998,317
854.177734,317
854.295532,303
854.413269,306
854.531006,320
854.648804,325
854.766541,312
854.884277,331
855.002014,314
855.119751,311
855.237549,306
855.355225,310
855.473022,318
855.590698,326
855.708435,307
855.826172,318
855.943848,318
856.061646,323
856.179321,310
856.296997,305
856.414795,302
856.53241,318
856.650085,312
856.767822,291
856.885559,308
857.003174,319
857.120911,309
857.238586,316
857.356201,317
857.473938,319
857.591614,313
857.709351,322
857.826965,322
857.944641,303
858.062317,311
858.179993,312
858.297668,308
858.415283,309
858.532959,321
858.650574,320
858.768188,309
858.885803,315
859.003479,303
859.121094,312
859.23877,326
859.356384,323
859.473999,315
859.591675,323
859.709229,313
859.826843,311
859.944458,316
860.062012,320
860.179626,315
860.297302,325
860.414856,322
860.532471,318
860.650024,307
860.767639,310
860.885193,315
861.002808,314
861.120361,304
861.237976,304
861.35553,313
861.473022,304
861.590698,311
861.708191,323
861.825745,314
861.943298,313
862.060852,309
862.178406,318
862.295959,318
862.413513,311
862.531006,309
862.64856,324
862.766113,321
862.883667,312
863.00116,317
863.118713,330
863.236206,301
863.353699,319
863.471252,305
863.588745,316
863.706177,312
863.82373,323
863.941162,325
864.058716,319
864.176208,317
864.29364,309
864.411194,321
864.528687,311
864.646118,316
864.763611,310
864.881042,319
864.998535,321
865.116028,306
865.233459,310
865.350891,318
865.468384,314
865.585754,311
865.703308,319
865.820679,322
865.938171,318
866.055542,327
866.173035,306
866.290466,320
866.407837,315
866.52533,313
866.6427,315
866.760071,318
866.877563,327
866.994934,297
867.112305,319
867.229736,309
867.347107,319
867.464539,318
867.58197,320
867.699341,321
867.81665,317
867.934082,315
868.051453,309
868.168823,306
868.286194,313
868.403564,318
868.520935,321
868.638306,309
868.755676,325
868.872986,310
868.990295,322
869.107727,305
869.225037,324
869.342346,317
869.459717,319
869.577026,315
869.694336,318
869.811707,321
869.929016,310
870.046326,328
870.163635,321
870.280945,313
870.398254,321
870.515564,312
870.632812,308
870.750183,313
870.867432,309
870.984741,324
871.102051,311
871.219299,314
871.336609,322
871.453918,304
871.571106,322
871.688416,327
871.805664,324
871.922852,319
872.040222,312
872.157471,301
872.274719,324
872.391968,312
872.509155,318
872.626465,318
872.743652,321
872.860962,309
872.978149,311
873.095337,316
873.212646,325
873.329834,323
873.44696,322
873.564209,302
873.681396,317
873.798645,306
873.915894,305
874.03302,316
874.150208,325
874.267456,334
874.384583,326
874.501831,318
874.618958,315
874.736145,313
874.853333,304
874.970459,305
875.087646,318
875.204834,316
875.32196,320
875.439148,323
875.556274,308
875.673401,324
875.790527,312
875.907715,316
876.024841,315
876.141968,304
876.259094,336
876.376282,320
876.493347,308
876.610474,295
876.7276,331
876.844727,303
876.961853,319
877.078918,320
877.195984,323
877.313171,303
877.430237,318
877.547302,320
877.664368,311
877.781433,307
877.898499,319
878.015625,319
878.13269,309
878.249695,327
878.366821,319
878.483887,325
878.600952,314
878.717957,321
878.834961,326
878.952087,322
879.069092,314
879.186157,319
879.303162,306
879.420227,317
879.537231,325
879.654236,315
879.77124,322
879.888306,313
880.005249,321
880.122314,327
880.239319,313
880.356323,312
880.473328,323
880.590271,312
880.707275,332
880.824341,320
880.941284,323
881.058228,312
881.175232,323
881.292236,310
881.40918,317
881.526123,327
881.643066,320
881.760071,317
881.877014,314
881.993958,319
882.11084,324
882.227783,311
882.344727,311
882.46167,319
882.578613,311
882.695618,318
882.812439,323
882.929382,314
883.046326,312
883.163208,295
883.280151,315
883.397034,312
883.513916,323
883.630798,318
883.747742,300
883.864563,317
883.981506,320
884.098389,317
884.21521,322
884.332153,314
884.448975,313
884.565796,310
884.682678,320
884.7995,330
884.916443,308
885.033264,317
885.150085,320
885.266968,314
885.383789,310
885.500671,316
885.617493,314
885.734314,324
885.851196,322
885.967896,315
886.084717,325
886.201599,315
886.318359,327
886.435181,316
886.552002,323
886.668762,318
886.785645,313
886.902344,314
887.019165,296
887.135925,309
887.252747,316
887.369446,325
887.486267,320
887.603027,305
887.719788,316
887.836548,307
887.953247,325
888.070068,319
888.186829,305
888.303528,317
888.420288,321
888.536987,327
888.653687,328
888.770447,317
888.887146,310
889.003967,323
889.120667,318
889.237305,308
889.354065,319
889.470703,314
889.587463,318
889.704163,324
889.820862,321
889.937561,319
890.054199,322
890.170837,308
890.287598,317
890.404236,307
890.520874,304
890.637634,322
890.754211,315
890.87085,309
890.987549,328
891.104187,308
891.220886,317
891.337463,327
891.454102,318
891.57074,317
891.687378,325
891.804077,313
891.920654,317
892.037231,317
892.15387,313
892.270447,319
892.387085,319
892.503723,327
892.6203,312
892.736877,323
892.853516,321
892.970032,335
893.08667,316
893.203186,322
893.319763,315
893.43634,305
893.552917,323
893.669556,298
893.786011,314
893.902588,322
894.019165,319
894.135681,320
894.252197,321
894.368835,323
894.485291,331
894.601868,306
894.718384,308
894.8349,320
894.951355,319
895.067932,316
895.184448,319
895.300964,320
895.417419,321
895.533936,323
895.650452,319
895.766907,320
895.883423,317
895.999878,309
896.116333,314
896.232849,308
896.349304,310
896.465759,308
896.582214,304
896.698669,317
896.815125,318
896.931641,325
897.048035,320
897.164551,314
897.280884,308
897.397339,306
897.513794,317
897.630249,317
897.746582,316
897.863098,312
897.979431,319
898.095886,314
898.212341,324
898.328674,331
898.445129,320
898.561462,326
898.677795,311
898.794312,312
898.910645,315
899.026978,322
899.143433,316
899.259766,322
899.37616,315
899.492493,314
899.608765,321
899.725159,317
899.841553,319
899.957947,310
900.07428,298
900.190552,311
900.306946,325
900.423157,307
900.53949,326
900.655884,306
900.772156,326
900.888489,322
901.004822,320
901.121033,311
901.237366,323
901.353699,307
901.46991,325
901.586304,319
901.702515,321
901.818787,304
901.93512,318
902.051331,317
902.167603,322
902.283875,313
902.400085,313
902.516418,313
902.632629,316
902.74884,314
902.865112,316
902.981384,306
903.097595,325
903.213867,322
903.330017,313
903.446289,311
903.5625,316
903.67865,318
903.794922,325
903.911072,310
904.027344,317
904.143494,325
904.259705,320
904.375916,315
904.492065,302
904.608215,325
904.724426,332
904.840576,317
904.956726,327
905.072876,313
905.189087,325
905.305176,323
905.421387,336
905.537537,314
905.653687,321
905.769775,325
905.885925,309
906.002014,321
906.118164,328
906.234314,321
906.350403,334
906.466492,311
906.582642,322
906.69873,310
906.814758,305
906.930908,311
907.046936,316
907.163086,326
907.279175,333
907.395264,302
907.511353,322
907.62738,320
907.743408,309
907.859497,312
907.975525,314
908.091553,318
908.207703,328
908.32373,312
908.439758,319
908.555786,318
908.671814,315
908.787842,305
908.90387,339
909.019775,313
909.135864,313
909.251892,309
909.367859,329
909.483826,318
909.599854,319
909.715881,321
909.831848,307
909.947815,322
910.063782,326
910.179749,323
910.295776,318
910.411743,310
910.527649,320
910.643616,335
910.759583,328
910.875488,314
910.991455,308
911.107361,304
911.223267,309
911.339294,312
911.4552,330
911.571106,315
911.687073,327
911.802979,325
911.918823,323
912.034729,325
912.150635,313
912.266602,316
912.382446,310
912.498352,324
912.614197,319
912.730103,330
912.846008,324
792.44574,317
792.56488,341
792.68396,399
792.80304,364
792.92218,327
793.041199,301
793.160339,327
793.279419,327
793.398499,330
793.517578,311
793.636658,312
793.755737,324
793.874817,341
793.993896,339
794.112976,328
794.232056,317
794.351074,320
794.470215,324
794.589233,329
794.708313,321
794.827393,323
794.946411,329
795.065552,336
795.18457,329
795.303589,323
795.422668,322
795.541687,327
795.660767,317
795.779846,322
795.898865,313
796.017883,327
796.136963,320
796.255981,328
796.375061,317
796.49408,328
796.613037,321
796.732117,332
796.851135,313
796.970154,342
797.089233,318
797.208191,321
797.327271,326
797.446228,325
797.565186,325
797.684265,315
797.803223,322
797.922241,316
798.04126,329
798.160278,326
798.279297,320
798.398315,328
798.517273,322
798.636292,335
798.75531,317
798.874268,330
798.993286,319
799.112244,324
799.231323,318
799.350281,326
799.469238,334
799.588257,322
799.707153,329
799.826111,329
799.945129,323
800.064087,319
800.183044,324
800.302063,328
800.421021,311
800.539978,326
800.658936,319
800.777893,318
800.896912,313
801.015747,328
801.134705,302
801.253723,326
801.37262,311
801.491638,328
801.610535,313
801.729492,326
801.84845,325
801.967407,321
802.086243,314
802.205261,305
802.324158,328
802.443115,315
802.562073,323
802.680969,312
802.799927,329
802.918762,330
803.037659,324
803.156677,320
803.275574,304
803.39447,326
803.513428,313
803.632263,323
803.751221,324
803.870117,315
803.989014,323
804.107971,315
804.226746,328
804.345642,317
804.4646,324
804.583496,323
804.702393,330
804.821228,329
804.940125,317
805.059021,311
805.177917,331
805.296814,327
805.415649,318
805.534546,319
805.653442,333
805.772278,316
805.891113,316
806.01001,321
806.128906,313
806.247742,329
806.366577,310
806.485413,326
806.604309,333
806.723145,317
806.84198,329
806.960876,327
807.079712,319
807.198486,315
807.317383,319
807.436218,330
807.554993,330
807.673889,311
807.792725,334
807.91156,323
808.030396,310
808.14917,312
808.268005,326
808.386841,324
808.505676,308
808.624451,311
808.743286,314
808.862122,319
808.980896,316
809.099731,314
809.218506,323
809.337341,323
809.456116,319
809.57489,320
809.693726,311
809.8125,330
809.931274,325
810.050049,322
810.168884,324
810.287659,320
810.406372,314
810.525269,325
810.643982,325
810.762756,317
810.881531,316
811.000305,319
811.11908,318
811.237854,338
811.356567,309
811.475403,327
811.594116,314
811.71283,325
811.831604,320
811.950378,311
812.069153,313
812.187927,329
812.30658,312
812.425415,315
812.544128,307
812.662781,312
812.781616,315
812.900269,318
813.019043,329
813.137756,319
813.256531,308
813.375244,329
813.493896,316
813.612671,329
813.731384,322
813.850037,324
813.96875,309
814.087524,335
814.206238,312
814.324951,325
814.443604,300
814.562256,333
814.68103,304
814.799683,328
814.918335,307
815.037109,326
815.155762,313
815.274475,318
815.393188,309
815.511841,313
815.630554,305
815.749146,330
815.867859,321
815.986572,333
816.105164,321
816.223877,313
816.342529,320
816.461182,326
816.579895,326
816.698486,324
816.817139,322
816.935791,332
817.054504,317
817.173096,316
817.291748,313
817.4104,318
817.529053,325
817.647644,331
817.766235,330
817.884949,313
818.00354,317
818.122192,318
818.240845,317
818.359436,316
818.478088,318
818.59668,316
818.715271,333
818.833923,321
818.952515,306
819.071106,325
819.189758,323
819.30835,314
819.426941,314
819.545532,318
819.664124,318
819.782715,315
819.901306,321
820.019897,322
820.138489,318
820.25708,309
820.375671,321
820.494202,326
820.612732,318
820.731384,329
820.849915,307
820.968506,318
821.087097,304
821.205627,322
821.324158,307
821.442749,310
821.561279,314
821.679871,312
821.798401,309
821.916931,322
822.035461,304
822.154053,307
822.272583,325
822.391174,315
822.509583,323
822.628174,316
822.746704,312
822.865234,330
822.983765,313
823.102295,321
823.220825,315
823.339294,305
823.457825,311
823.576355,319
823.694824,307
823.813354,298
823.931885,315
824.050354,327
824.168884,315
824.287354,321
824.405823,315
824.524353,306
824.642822,321
824.761353,316
824.879822,317
824.998291,308
825.116699,315
825.235291,302
825.353699,327
825.472168,321
825.590637,334
825.709106,318
825.827576,319
825.946045,315
826.064453,317
826.182983,323
826.301392,315
826.4198,326
826.53833,321
826.656738,314
826.775208,327
826.893677,317
827.012024,312
827.130493,319
827.248962,327
827.36731,310
827.485779,316
827.604248,308
827.722595,321
827.841064,338
827.959412,316
828.077942,318
828.196289,313
828.314636,313
828.433105,321
828.551514,319
828.669861,308
828.78833,312
828.906677,318
829.025085,319
829.143433,305
829.261841,313
829.38031,318
829.498657,309
829.617004,316
829.735413,309
829.85376,308
829.972107,319
830.090515,320
830.208862,300
830.327209,305
830.445557,316
830.563904,324
830.682312,321
830.800659,315
830.919006,316
831.037354,320
831.155701,315
831.274048,319
831.392395,317
831.51062,313
831.629028,302
831.747314,315
831.865662,317
831.984009,304
832.102356,327
832.220642,312
832.338928,318
832.457275,314
832.575623,316
832.693909,309
832.812134,329
832.930481,319
833.048828,329
833.167114,322
833.2854,308
833.403687,311
833.521973,319
833.640259,310
833.758545,314
833.876831,322
833.995056,310
834.113281,309
834.231628,307
834.349915,314
834.468201,325
834.586426,312
834.704651,316
834.822998,313
834.941162,312
835.059448,319
835.177673,323
835.295959,318
835.414246,311
835.53241,305
835.650635,323
835.768921,312
835.887146,318
836.005371,316
836.123596,330
836.241821,313
836.360046,315
836.478271,320
836.596497,325
836.714722,320
836.832886,312
836.95105,321
837.069336,318
837.1875,316
837.305725,330
837.423889,324
837.542053,311
837.660339,317
837.778503,287
837.896667,308
838.014832,325
838.132996,302
838.25116,335
838.369385,305
838.487488,328
838.605713,315
838.723877,322
838.84198,320
838.960205,314
839.078308,312
839.196472,330
839.314636,307
839.4328,313
839.550964,305
839.669067,321
839.787231,319
839.905396,317
840.023499,325
840.141602,315
840.259766,317
840.377869,310
840.495972,305
840.614136,320
840.732239,310
840.850342,326
840.968445,316
841.086548,318
841.204651,302
841.322754,339
841.440918,310
841.55896,318
841.677002,319
841.795166,321
841.913208,313
842.031311,318
842.149353,293
842.267456,299
842.385498,325
842.503601,313
842.621643,310
842.739746,328
842.857788,327
842.97583,311
843.093933,320
843.211975,315
843.330017,314
843.44812,322
843.566101,324
843.684204,301
843.802246,311
843.920227,311
844.038269,309
844.156311,320
844.274292,315
844.392395,328
844.510376,315
844.628357,314
844.74646,307
844.864441,305
844.982422,326
845.100403,319
845.218384,314
845.336426,315
845.454468,310
845.572449,320
845.69043,313
845.808411,322
845.926453,317
846.044373,319
846.162354,298
846.280396,314
846.398315,313
846.516296,295
846.634216,309
846.752197,304
846.870178,306
846.988098,313
847.106079,311
847.22406,309
847.34198,312
847.4599,314
847.577881,312
847.695801,320
847.813782,304
847.931641,313
848.049561,318
848.167603,329
848.285461,322
848.403381,311
848.521362,314
848.639221,326
848.75708,313
848.875,319
848.99292,314
849.110901,317
849.22876,312
849.34668,316
849.464539,312
849.582458,312
849.700317,307
849.818176,318
849.936096,330
850.053955,323
850.171875,307
850.289673,314
850.407593,317
850.525452,313
850.643311,312
850.761169,317
850.878967,325
850.996887,313
851.114746,307
851.232544,320
851.350403,310
851.468262,318
851.58606,308
851.703979,324
851.821777,313
851.939636,317
852.057434,323
852.175232,322
852.293091,306
852.410889,335
852.528687,309
852.646545,323
852.764343,313
852.88208,318
852.999939,311
853.117676,316
853.235535,310
853.353271,318
853.471069,303
853.588928,322
853.706604,296
853.824402,312
853.9422,322
854.059998,313
854.177734,322
854.295532,312
854.413269,328
854.531006,326
854.648804,316
854.766541,310
854.884277,318
855.002014,320
855.119751,308
855.237549,316
855.355225,324
855.473022,328
855.590698,310
855.708435,324
855.826172,317
855.943848,313
856.061646,318
856.179321,307
856.296997,323
856.414795,307
856.53241,316
856.650085,327
856.767822,309
856.885559,325
857.003174,313
857.120911,321
857.238586,311
857.356201,314
857.473938,315
857.591614,316
857.709351,311
857.826965,319
857.944641,307
858.062317,318
858.179993,319
858.297668,317
858.415283,320
858.532959,330
858.650574,318
858.768188,309
858.885803,325
859.003479,322
859.121094,313
859.23877,321
859.356384,314
859.473999,317
859.591675,315
859.709229,321
859.826843,293
859.944458,315
860.062012,316
860.179626,323
860.297302,311
860.414856,306
860.532471,304
860.650024,318
860.767639,310
860.885193,320
861.002808,310
861.120361,311
861.237976,318
861.35553,317
861.473022,316
861.590698,321
861.708191,307
861.825745,308
861.943298,306
862.060852,318
862.178406,309
862.295959,327
862.413513,320
862.531006,303
862.64856,324
862.766113,325
862.883667,322
863.00116,321
863.118713,310
863.236206,323
863.353699,320
863.471252,311
863.588745,333
863.706177,308
863.82373,308
863.941162,326
864.058716,319
864.176208,319
864.29364,313
864.411194,331
864.528687,331
864.646118,309
864.763611,315
864.881042,317
864.998535,314
865.116028,320
865.233459,307
865.350891,320
865.468384,315
865.585754,331
865.703308,316
865.820679,316
865.938171,314
866.055542,297
866.173035,310
866.290466,307
866.407837,305
866.52533,309
866.6427,300
866.760071,322
866.877563,325
866.994934,332
867.112305,319
867.229736,304
867.347107,326
867.464539,319
867.58197,327
867.699341,316
867.81665,311
867.934082,317
868.051453,315
868.168823,305
868.286194,318
868.403564,309
868.520935,309
868.638306,326
868.755676,311
868.872986,319
868.990295,313
869.107727,309
869.225037,322
869.342346,313
869.459717,325
869.577026,306
869.694336,305
869.811707,320
869.929016,315
870.046326,314
870.163635,319
870.280945,320
870.398254,311
870.515564,321
870.632812,309
870.750183,318
870.867432,306
870.984741,313
871.102051,305
871.219299,319
871.336609,309
871.453918,327
871.571106,310
871.688416,320
871.805664,314
871.922852,314
872.040222,314
872.157471,316
872.274719,296
872.391968,327
872.509155,312
872.626465,319
872.743652,315
872.860962,321
872.978149,317
873.095337,313
873.212646,317
873.329834,307
873.44696,305
873.564209,306
873.681396,303
873.798645,322
873.915894,318
874.03302,318
874.150208,322
874.267456,313
874.384583,315
874.501831,317
874.618958,314
874.736145,320
874.853333,306
874.970459,314
875.087646,302
875.204834,321
875.32196,319
875.439148,311
875.556274,321
875.673401,320
875.790527,309
875.907715,310
876.024841,308
876.141968,315
876.259094,315
876.376282,324
876.493347,312
876.610474,312
876.7276,311
876.844727,315
876.961853,316
877.078918,314
877.195984,310
877.313171,321
877.430237,314
877.547302,328
877.664368,308
877.781433,320
877.898499,315
878.015625,322
878.13269,311
878.249695,321
878.366821,309
878.483887,310
878.600952,323
878.717957,313
878.834961,310
878.952087,334
879.069092,312
879.186157,309
879.303162,303
879.420227,323
879.537231,310
879.654236,319
879.77124,318
879.888306,315
880.005249,331
880.122314,307
880.239319,314
880.356323,315
880.473328,315
880.590271,319
880.707275,310
880.824341,319
880.941284,321
881.058228,322
881.175232,318
881.292236,329
881.40918,309
881.526123,329
881.643066,317
881.760071,321
881.877014,303
881.993958,312
882.11084,311
882.227783,315
882.344727,314
882.46167,311
882.578613,320
882.695618,312
882.812439,309
882.929382,332
883.046326,318
883.163208,322
883.280151,313
883.397034,307
883.513916,318
883.630798,305
883.747742,321
883.864563,321
883.981506,313
884.098389,328
884.21521,294
884.332153,310
884.448975,315
884.565796,311
884.682678,323
884.7995,325
884.916443,324
885.033264,308
885.150085,315
885.266968,337
885.383789,311
885.500671,320
885.617493,305
885.734314,311
885.851196,309
885.967896,324
886.084717,310
886.201599,319
886.318359,294
886.435181,321
886.552002,324
886.668762,327
886.785645,308
886.902344,326
887.019165,303
887.135925,321
887.252747,313
887.369446,312
887.486267,305
887.603027,324
887.719788,310
887.836548,315
887.953247,313
888.070068,320
888.186829,310
888.303528,319
888.420288,312
888.536987,324
888.653687,325
888.770447,321
888.887146,315
889.003967,331
889.120667,319
889.237305,324
889.354065,318
889.470703,326
889.587463,319
889.704163,312
889.820862,299
889.937561,313
890.054199,313
890.170837,333
890.287598,319
890.404236,318
890.520874,311
890.637634,324
890.754211,321
890.87085,310
890.987549,308
891.104187,334
891.220886,326
891.337463,321
891.454102,320
891.57074,307
891.687378,299
891.804077,314
891.920654,320
892.037231,313
892.15387,295
892.270447,323
892.387085,311
892.503723,327
892.6203,318
892.736877,340
892.853516,310
892.970032,303
893.08667,306
893.203186,331
893.319763,310
893.43634,328
893.552917,310
893.669556,324
893.786011,312
893.902588,312
894.019165,315
894.135681,322
894.252197,314
894.368835,317
894.485291,318
894.601868,331
894.718384,322
894.8349,329
894.951355,303
895.067932,320
895.184448,298
895.300964,312
895.417419,306
895.533936,320
895.650452,303
895.766907,312
895.883423,308
895.999878,322
896.116333,327
896.232849,330
896.349304,318
896.465759,314
896.582214,325
896.698669,315
896.815125,321
896.931641,323
897.048035,307
897.164551,318
897.280884,313
897.397339,309
897.513794,320
897.630249,315
897.746582,307
897.863098,322
897.979431,300
898.095886,328
898.212341,313
898.328674,329
898.445129,310
898.561462,321
898.677795,317
898.794312,329
898.910645,307
899.026978,314
899.143433,295
899.259766,316
899.37616,320
899.492493,322
899.608765,318
899.725159,302
899.841553,315
899.957947,307
900.07428,314
900.190552,313
900.306946,302
900.423157,318
900.53949,314
900.655884,315
900.772156,317
900.888489,323
901.004822,317
901.121033,317
901.237366,318
901.353699,332
901.46991,300
901.586304,322
901.702515,317
901.818787,328
901.93512,305
902.051331,324
902.167603,312
902.283875,322
902.400085,311
902.516418,318
902.632629,316
902.74884,324
902.865112,310
902.981384,325
903.097595,299
903.213867,309
903.330017,318
903.446289,314
903.5625,328
903.67865,313
903.794922,302
903.911072,317
904.027344,314
904.143494,314
904.259705,320
904.375916,315
904.492065,306
904.608215,315
904.724426,317
904.840576,307
904.956726,313
905.072876,322
905.189087,302
905.305176,331
905.421387,311
905.537537,316
905.653687,312
905.769775,324
905.885925,322
906.002014,312
906.118164,316
906.234314,334
906.350403,313
906.466492,319
906.582642,315
906.69873,312
906.814758,326
906.930908,316
907.046936,310
907.163086,318
907.279175,306
907.395264,327
907.511353,319
907.62738,324
907.743408,325
907.859497,317
907.975525,337
908.091553,316
908.207703,330
908.32373,314
908.439758,308
908.555786,315
908.671814,328
908.787842,318
908.90387,315
909.019775,325
909.135864,317
909.251892,328
909.367859,313
909.483826,332
909.599854,311
909.715881,309
909.831848,314
909.947815,337
910.063782,307
910.179749,326
910.295776,317
910.411743,307
910.527649,316
910.643616,308
910.759583,300
910.875488,326
910.991455,307
911.107361,326
911.223267,306
911.339294,317
911.4552,317
911.571106,316
911.687073,312
911.802979,338
911.918823,323
912.034729,313
912.150635,304
912.266602,304
912.382446,311
912.498352,323
912.614197,316
912.730103,333
912.846008,314
