792.44574,302
792.56488,357
792.68396,393
792.80304,385
792.92218,342
793.041199,301
793.160339,340
793.279419,327
793.398499,334
793.517578,305
793.636658,315
793.755737,331
793.874817,347
793.993896,347
794.112976,319
794.232056,323
794.351074,322
794.470215,333
794.589233,332
794.708313,331
794.827393,324
794.946411,329
795.065552,329
795.18457,328
795.303589,326
795.422668,325
795.541687,325
795.660767,322
795.779846,337
795.898865,321
796.017883,324
796.136963,348
796.255981,322
796.375061,341
796.49408,337
796.613037,329
796.732117,339
796.851135,336
796.970154,318
797.089233,335
797.208191,323
797.327271,327
797.446228,326
797.565186,329
797.684265,335
797.803223,339
797.922241,330
798.04126,325
798.160278,327
798.279297,329
798.398315,331
798.517273,329
798.636292,326
798.75531,326
798.874268,336
798.993286,325
799.112244,333
799.231323,327
799.350281,342
799.469238,330
799.588257,338
799.707153,330
799.826111,336
799.945129,327
800.064087,333
800.183044,320
800.302063,341
800.421021,337
800.539978,335
800.658936,343
800.777893,336
800.896912,342
801.015747,323
801.134705,322
801.253723,336
801.37262,329
801.491638,336
801.610535,331
801.729492,330
801.84845,331
801.967407,320
802.086243,338
802.205261,317
802.324158,333
802.443115,318
802.562073,331
802.680969,328
802.799927,339
802.918762,321
803.037659,335
803.156677,310
803.275574,328
803.39447,322
803.513428,331
803.632263,319
803.751221,341
803.870117,318
803.989014,335
804.107971,333
804.226746,333
804.345642,336
804.4646,334
804.583496,337
804.702393,335
804.821228,338
804.940125,331
805.059021,318
805.177917,335
805.296814,320
805.415649,338
805.534546,324
805.653442,340
805.772278,326
805.891113,336
806.01001,328
806.128906,327
806.247742,331
806.366577,324
806.485413,331
806.604309,335
806.723145,337
806.84198,342
806.960876,325
807.079712,344
807.198486,324
807.317383,331
807.436218,330
807.554993,318
807.673889,328
807.792725,331
807.91156,341
808.030396,322
808.14917,327
808.268005,333
808.386841,327
808.505676,329
808.624451,335
808.743286,325
808.862122,341
808.980896,331
809.099731,331
809.218506,321
809.337341,325
809.456116,341
809.57489,335
809.693726,335
809.8125,338
809.931274,310
810.050049,320
810.168884,328
810.287659,328
810.406372,333
810.525269,338
810.643982,346
810.762756,338
810.881531,315
811.000305,331
811.11908,325
811.237854,322
811.356567,336
811.475403,335
811.594116,321
811.71283,346
811.831604,325
811.950378,334
812.069153,335
812.187927,323
812.30658,324
812.425415,332
812.544128,326
812.662781,322
812.781616,331
812.900269,331
813.019043,315
813.137756,331
813.256531,336
813.375244,333
813.493896,329
813.612671,330
813.731384,344
813.850037,327
813.96875,341
814.087524,325
814.206238,340
814.324951,339
814.443604,331
814.562256,327
814.68103,343
814.799683,322
814.918335,333
815.037109,338
815.155762,331
815.274475,345
815.393188,331
815.511841,327
815.630554,335
815.749146,334
815.867859,327
815.986572,317
816.105164,327
816.223877,347
816.342529,321
816.461182,320
816.579895,340
816.698486,334
816.817139,319
816.935791,326
817.054504,336
817.173096,343
817.291748,328
817.4104,326
817.529053,326
817.647644,333
817.766235,339
817.884949,337
818.00354,328
818.122192,315
818.240845,337
818.359436,321
818.478088,327
818.59668,331
818.715271,333
818.833923,328
818.952515,329
819.071106,330
819.189758,324
819.30835,323
819.426941,322
819.545532,323
819.664124,308
819.782715,312
819.901306,319
820.019897,318
820.138489,312
820.25708,320
820.375671,324
820.494202,315
820.612732,334
820.731384,311
820.849915,323
820.968506,314
821.087097,328
821.205627,309
821.324158,321
821.442749,321
821.561279,323
821.679871,328
821.798401,313
821.916931,316
822.035461,316
822.154053,319
822.272583,314
822.391174,309
822.509583,340
822.628174,320
822.746704,304
822.865234,306
822.983765,318
823.102295,322
823.220825,320
823.339294,315
823.457825,312
823.576355,328
823.694824,329
823.813354,316
823.931885,314
824.050354,323
824.168884,324
824.287354,333
824.405823,323
824.524353,318
824.642822,331
824.761353,326
824.879822,319
824.998291,321
825.116699,317
825.235291,318
825.353699,327
825.472168,322
825.590637,322
825.709106,306
825.827576,310
825.946045,322
826.064453,317
826.182983,327
826.301392,315
826.4198,310
826.53833,317
826.656738,316
826.775208,316
826.893677,308
827.012024,326
827.130493,306
827.248962,315
827.36731,311
827.485779,332
827.604248,319
827.722595,312
827.841064,328
827.959412,328
828.077942,309
828.196289,319
828.314636,313
828.433105,309
828.551514,311
828.669861,331
828.78833,315
828.906677,314
829.025085,307
829.143433,310
829.261841,305
829.38031,317
829.498657,311
829.617004,303
829.735413,332
829.85376,319
829.972107,323
830.090515,325
830.208862,314
830.327209,320
830.445557,303
830.563904,312
830.682312,309
830.800659,312
830.919006,319
831.037354,306
831.155701,332
831.274048,318
831.392395,319
831.51062,324
831.629028,323
831.747314,316
831.865662,312
831.984009,320
832.102356,315
832.220642,321
832.338928,320
832.457275,311
832.575623,313
832.693909,323
832.812134,302
832.930481,320
833.048828,324
833.167114,331
833.2854,307
833.403687,312
833.521973,313
833.640259,318
833.758545,319
833.876831,320
833.995056,316
834.113281,306
834.231628,315
834.349915,321
834.468201,313
834.586426,309
834.704651,320
834.822998,319
834.941162,318
835.059448,323
835.177673,313
835.295959,316
835.414246,319
835.53241,319
835.650635,303
835.768921,315
835.887146,304
836.005371,318
836.123596,311
836.241821,312
836.360046,317
836.478271,320
836.596497,317
836.714722,324
836.832886,316
836.95105,314
837.069336,324
837.1875,318
837.305725,311
837.423889,311
837.542053,311
837.660339,324
837.778503,319
837.896667,327
838.014832,317
838.132996,321
838.25116,318
838.369385,318
838.487488,314
838.605713,318
838.723877,310
838.84198,321
838.960205,317
839.078308,317
839.196472,323
839.314636,305
839.4328,322
839.550964,319
839.669067,313
839.787231,316
839.905396,324
840.023499,315
840.141602,321
840.259766,329
840.377869,309
840.495972,315
840.614136,309
840.732239,314
840.850342,310
840.968445,313
841.086548,312
841.204651,323
841.322754,320
841.440918,325
841.55896,312
841.677002,320
841.795166,322
841.913208,314
842.031311,318
842.149353,326
842.267456,333
842.385498,330
842.503601,303
842.621643,328
842.739746,316
842.857788,314
842.97583,329
843.093933,316
843.211975,315
843.330017,309
843.44812,314
843.566101,319
843.684204,312
843.802246,314
843.920227,316
844.038269,325
844.156311,303
844.274292,311
844.392395,314
844.510376,305
844.628357,325
844.74646,313
844.864441,321
844.982422,317
845.100403,316
845.218384,311
845.336426,317
845.454468,310
845.572449,323
845.69043,312
845.808411,307
845.926453,315
846.044373,318
846.162354,326
846.280396,316
846.398315,304
846.516296,314
846.634216,330
846.752197,301
846.870178,319
846.988098,327
847.106079,325
847.22406,304
847.34198,323
847.4599,320
847.577881,315
847.695801,311
847.813782,321
847.931641,313
848.049561,320
848.167603,315
848.285461,307
848.403381,310
848.521362,315
848.639221,316
848.75708,321
848.875,311
848.99292,318
849.110901,313
849.22876,323
849.34668,322
849.464539,327
849.582458,322
849.700317,326
849.818176,325
849.936096,312
850.053955,316
850.171875,319
850.289673,316
850.407593,322
850.525452,305
850.643311,327
850.761169,307
850.878967,306
850.996887,300
851.114746,315
851.232544,310
851.350403,314
851.468262,315
851.58606,315
851.703979,314
851.821777,321
851.939636,316
852.057434,318
852.175232,309
852.293091,309
852.410889,311
852.528687,320
852.646545,317
852.764343,322
852.88208,306
852.999939,313
853.117676,320
853.235535,326
853.353271,325
853.471069,319
853.588928,305
853.706604,316
853.824402,319
853.9422,305
854.059998,319
854.177734,303
854.295532,318
854.413269,322
854.531006,313
854.648804,320
854.766541,329
854.884277,321
855.002014,307
855.119751,310
855.237549,314
855.355225,328
855.473022,315
855.590698,326
855.708435,309
855.826172,314
855.943848,318
856.061646,313
856.179321,320
856.296997,333
856.414795,316
856.53241,307
856.650085,307
856.767822,316
856.885559,309
857.003174,316
857.120911,331
857.238586,312
857.356201,320
857.473938,309
857.591614,312
857.709351,307
857.826965,313
857.944641,325
858.062317,311
858.179993,319
858.297668,323
858.415283,311
858.532959,315
858.650574,324
858.768188,330
858.885803,325
859.003479,320
859.121094,325
859.23877,313
859.356384,319
859.473999,323
859.591675,317
859.709229,315
859.826843,306
859.944458,313
860.062012,315
860.179626,318
860.297302,320
860.414856,320
860.532471,313
860.650024,307
860.767639,313
860.885193,328
861.002808,325
861.120361,324
861.237976,316
861.35553,312
861.473022,316
861.590698,318
861.708191,305
861.825745,315
861.943298,315
862.060852,307
862.178406,311
862.295959,319
862.413513,308
862.531006,326
862.64856,334
862.766113,311
862.883667,321
863.00116,319
863.118713,322
863.236206,310
863.353699,319
863.471252,309
863.588745,312
863.706177,316
863.82373,300
863.941162,312
864.058716,313
864.176208,321
864.29364,317
864.411194,315
864.528687,323
864.646118,326
864.763611,309
864.881042,302
864.998535,310
865.116028,332
865.233459,322
865.350891,309
865.468384,305
865.585754,324
865.703308,318
865.820679,294
865.938171,315
866.055542,322
866.173035,314
866.290466,317
866.407837,312
866.52533,325
866.6427,322
866.760071,309
866.877563,324
866.994934,329
867.112305,322
867.229736,319
867.347107,329
867.464539,302
867.58197,323
867.699341,315
867.81665,310
867.934082,296
868.051453,324
868.168823,306
868.286194,320
868.403564,310
868.520935,318
868.638306,319
868.755676,309
868.872986,314
868.990295,303
869.107727,320
869.225037,308
869.342346,312
869.459717,311
869.577026,324
869.694336,327
869.811707,304
869.929016,316
870.046326,310
870.163635,297
870.280945,312
870.398254,309
870.515564,320
870.632812,319
870.750183,312
870.867432,319
870.984741,306
871.102051,323
871.219299,321
871.336609,337
871.453918,321
871.571106,317
871.688416,313
871.805664,320
871.922852,313
872.040222,304
872.157471,324
872.274719,312
872.391968,320
872.509155,321
872.626465,320
872.743652,316
872.860962,320
872.978149,323
873.095337,318
873.212646,327
873.329834,320
873.44696,309
873.564209,292
873.681396,308
873.798645,315
873.915894,309
874.03302,309
874.150208,319
874.267456,325
874.384583,329
874.501831,322
874.618958,323
874.736145,314
874.853333,298
874.970459,312
875.087646,315
875.204834,320
875.32196,312
875.439148,306
875.556274,315
875.673401,318
875.790527,310
875.907715,312
876.024841,311
876.141968,319
876.259094,316
876.376282,313
876.493347,313
876.610474,319
876.7276,320
876.844727,303
876.961853,322
877.078918,312
877.195984,315
877.313171,320
877.430237,329
877.547302,327
877.664368,318
877.781433,298
877.898499,330
878.015625,328
878.13269,316
878.249695,314
878.366821,323
878.483887,326
878.600952,315
878.717957,319
878.834961,317
878.952087,311
879.069092,309
879.186157,305
879.303162,318
879.420227,319
879.537231,327
879.654236,310
879.77124,328
879.888306,314
880.005249,300
880.122314,303
880.239319,334
880.356323,310
880.473328,314
880.590271,318
880.707275,312
880.824341,307
880.941284,310
881.058228,305
881.175232,317
881.292236,313
881.40918,309
881.526123,316
881.643066,308
881.760071,321
881.877014,333
881.993958,319
882.11084,323
882.227783,321
882.344727,316
882.46167,321
882.578613,328
882.695618,311
882.812439,330
882.929382,307
883.046326,313
883.163208,297
883.280151,317
883.397034,309
883.513916,315
883.630798,309
883.747742,324
883.864563,308
883.981506,318
884.098389,302
884.21521,307
884.332153,315
884.448975,316
884.565796,314
884.682678,315
884.7995,310
884.916443,320
885.033264,307
885.150085,305
885.266968,328
885.383789,323
885.500671,314
885.617493,335
885.734314,314
885.851196,313
885.967896,300
886.084717,329
886.201599,312
886.318359,332
886.435181,304
886.552002,323
886.668762,328
886.785645,324
886.902344,333
887.019165,309
887.135925,313
887.252747,326
887.369446,322
887.486267,310
887.603027,308
887.719788,315
887.836548,311
887.953247,312
888.070068,309
888.186829,306
888.303528,310
888.420288,315
888.536987,314
888.653687,320
888.770447,314
888.887146,315
889.003967,328
889.120667,334
889.237305,324
889.354065,313
889.470703,321
889.587463,318
889.704163,317
889.820862,318
889.937561,316
890.054199,303
890.170837,324
890.287598,329
890.404236,315
890.520874,313
890.637634,316
890.754211,330
890.87085,320
890.987549,310
891.104187,320
891.220886,317
891.337463,308
891.454102,326
891.57074,297
891.687378,315
891.804077,312
891.920654,321
892.037231,304
892.15387,314
892.270447,313
892.387085,314
892.503723,293
892.6203,316
892.736877,305
892.853516,327
892.970032,313
893.08667,325
893.203186,320
893.319763,302
893.43634,318
893.552917,317
893.669556,317
893.786011,316
893.902588,321
894.019165,326
894.135681,315
894.252197,302
894.368835,310
894.485291,326
894.601868,308
894.718384,316
894.8349,316
894.951355,314
895.067932,313
895.184448,315
895.300964,306
895.417419,303
895.533936,324
895.650452,323
895.766907,289
895.883423,312
895.999878,322
896.116333,323
896.232849,312
896.349304,323
896.465759,308
896.582214,325
896.698669,329
896.815125,323
896.931641,310
897.048035,313
897.164551,326
897.280884,319
897.397339,309
897.513794,317
897.630249,311
897.746582,326
897.863098,317
897.979431,314
898.095886,325
898.212341,330
898.328674,330
898.445129,321
898.561462,312
898.677795,317
898.794312,315
898.910645,320
899.026978,309
899.143433,324
899.259766,307
899.37616,320
899.492493,318
899.608765,312
899.725159,309
899.841553,330
899.957947,311
900.07428,327
900.190552,325
900.306946,307
900.423157,317
900.53949,320
900.655884,328
900.772156,316
900.888489,317
901.004822,309
901.121033,315
901.237366,325
901.353699,312
901.46991,321
901.586304,299
901.702515,318
901.818787,329
901.93512,321
902.051331,318
902.167603,324
902.283875,311
902.400085,302
902.516418,298
902.632629,319
902.74884,317
902.865112,319
902.981384,316
903.097595,315
903.213867,318
903.330017,321
903.446289,325
903.5625,333
903.67865,316
903.794922,311
903.911072,317
904.027344,326
904.143494,313
904.259705,323
904.375916,326
904.492065,318
904.608215,312
904.724426,310
904.840576,323
904.956726,319
905.072876,311
905.189087,326
905.305176,306
905.421387,322
905.537537,330
905.653687,329
905.769775,321
905.885925,315
906.002014,316
906.118164,310
906.234314,313
906.350403,323
906.466492,312
906.582642,328
906.69873,310
906.814758,321
906.930908,319
907.046936,315
907.163086,325
907.279175,323
907.395264,320
907.511353,318
907.62738,331
907.743408,316
907.859497,320
907.975525,329
908.091553,313
908.207703,341
908.32373,313
908.439758,312
908.555786,314
908.671814,313
908.787842,329
908.90387,321
909.019775,306
909.135864,322
909.251892,308
909.367859,323
909.483826,320
909.599854,314
909.715881,330
909.831848,317
909.947815,323
910.063782,314
910.179749,326
910.295776,332
910.411743,321
910.527649,336
910.643616,312
910.759583,313
910.875488,317
910.991455,338
911.107361,311
911.223267,317
911.339294,319
911.4552,317
911.571106,323
911.687073,327
911.802979,331
911.918823,316
912.034729,318
912.150635,307
912.266602,324
912.382446,319
912.498352,318
912.614197,312
912.730103,314
912.846008,313
792.44574,312
792.56488,345
792.68396,400
792.80304,374
792.92218,331
793.041199,321
793.160339,339
793.279419,337
793.398499,339
793.517578,319
793.636658,319
793.755737,348
793.874817,348
793.993896,327
794.112976,331
794.232056,322
794.351074,328
794.470215,325
794.589233,324
794.708313,329
794.827393,327
794.946411,336
795.065552,337
795.18457,332
795.303589,326
795.422668,327
795.541687,326
795.660767,327
795.779846,340
795.898865,331
796.017883,340
796.136963,333
796.255981,337
796.375061,332
796.49408,334
796.613037,346
796.732117,336
796.851135,309
796.970154,326
797.089233,325
797.208191,320
797.327271,305
797.446228,338
797.565186,348
797.684265,333
797.803223,323
797.922241,335
798.04126,318
798.160278,322
798.279297,333
798.398315,343
798.517273,329
798.636292,326
798.75531,335
798.874268,333
798.993286,315
799.112244,324
799.231323,338
799.350281,319
799.469238,341
799.588257,325
799.707153,320
799.826111,326
799.945129,329
800.064087,331
800.183044,346
800.302063,327
800.421021,335
800.539978,331
800.658936,333
800.777893,331
800.896912,327
801.015747,336
801.134705,314
801.253723,340
801.37262,322
801.491638,333
801.610535,322
801.729492,316
801.84845,340
801.967407,321
802.086243,316
802.205261,339
802.324158,326
802.443115,322
802.562073,330
802.680969,317
802.799927,341
802.918762,317
803.037659,330
803.156677,324
803.275574,334
803.39447,328
803.513428,333
803.632263,333
803.751221,335
803.870117,327
803.989014,331
804.107971,338
804.226746,335
804.345642,330
804.4646,322
804.583496,327
804.702393,331
804.821228,327
804.940125,331
805.059021,327
805.177917,329
805.296814,325
805.415649,320
805.534546,345
805.653442,319
805.772278,320
805.891113,340
806.01001,332
806.128906,335
806.247742,343
806.366577,319
806.485413,338
806.604309,326
806.723145,333
806.84198,336
806.960876,337
807.079712,320
807.198486,336
807.317383,332
807.436218,335
807.554993,322
807.673889,324
807.792725,310
807.91156,330
808.030396,328
808.14917,327
808.268005,342
808.386841,337
808.505676,314
808.624451,341
808.743286,339
808.862122,324
808.980896,337
809.099731,331
809.218506,336
809.337341,346
809.456116,330
809.57489,325
809.693726,329
809.8125,326
809.931274,342
810.050049,336
810.168884,339
810.287659,336
810.406372,336
810.525269,342
810.643982,327
810.762756,342
810.881531,335
811.000305,321
811.11908,340
811.237854,324
811.356567,321
811.475403,346
811.594116,330
811.71283,330
811.831604,350
811.950378,339
812.069153,331
812.187927,333
812.30658,341
812.425415,332
812.544128,318
812.662781,345
812.781616,326
812.900269,329
813.019043,326
813.137756,343
813.256531,314
813.375244,331
813.493896,329
813.612671,337
813.731384,335
813.850037,318
813.96875,335
814.087524,344
814.206238,327
814.324951,322
814.443604,320
814.562256,322
814.68103,320
814.799683,326
814.918335,330
815.037109,326
815.155762,334
815.274475,350
815.393188,345
815.511841,338
815.630554,334
815.749146,328
815.867859,331
815.986572,338
816.105164,316
816.223877,345
816.342529,333
816.461182,327
816.579895,331
816.698486,322
816.817139,325
816.935791,338
817.054504,324
817.173096,345
817.291748,339
817.4104,328
817.529053,324
817.647644,320
817.766235,349
817.884949,324
818.00354,331
818.122192,321
818.240845,317
818.359436,319
818.478088,313
818.59668,333
818.715271,312
818.833923,320
818.952515,312
819.071106,334
819.189758,321
819.30835,325
819.426941,325
819.545532,327
819.664124,310
819.782715,347
819.901306,313
820.019897,315
820.138489,312
820.25708,318
820.375671,321
820.494202,309
820.612732,329
820.731384,328
820.849915,318
820.968506,325
821.087097,305
821.205627,320
821.324158,323
821.442749,322
821.561279,307
821.679871,314
821.798401,329
821.916931,318
822.035461,324
822.154053,325
822.272583,332
822.391174,323
822.509583,328
822.628174,329
822.746704,321
822.865234,323
822.983765,324
823.102295,311
823.220825,327
823.339294,321
823.457825,318
823.576355,313
823.694824,314
823.813354,330
823.931885,320
824.050354,322
824.168884,318
824.287354,319
824.405823,308
824.524353,331
824.642822,315
824.761353,315
824.879822,322
824.998291,318
825.116699,305
825.235291,315
825.353699,313
825.472168,322
825.590637,319
825.709106,325
825.827576,303
825.946045,314
826.064453,316
826.182983,323
826.301392,314
826.4198,321
826.53833,314
826.656738,309
826.775208,313
826.893677,318
827.012024,322
827.130493,331
827.248962,310
827.36731,337
827.485779,315
827.604248,321
827.722595,314
827.841064,319
827.959412,320
828.077942,331
828.196289,308
828.314636,319
828.433105,319
828.551514,326
828.669861,323
828.78833,313
828.906677,322
829.025085,313
829.143433,324
829.261841,317
829.38031,314
829.498657,330
829.617004,309
829.735413,322
829.85376,304
829.972107,333
830.090515,316
830.208862,309
830.327209,313
830.445557,308
830.563904,313
830.682312,315
830.800659,314
830.919006,323
831.037354,318
831.155701,324
831.274048,309
831.392395,325
831.51062,316
831.629028,322
831.747314,313
831.865662,324
831.984009,318
832.102356,330
832.220642,303
832.338928,314
832.457275,319
832.575623,312
832.693909,326
832.812134,312
832.930481,315
833.048828,311
833.167114,311
833.2854,329
833.403687,317
833.521973,305
833.640259,304
833.758545,328
833.876831,311
833.995056,313
834.113281,311
834.231628,312
834.349915,321
834.468201,324
834.586426,306
834.704651,301
834.822998,324
834.941162,322
835.059448,332
835.177673,313
835.295959,306
835.414246,313
835.53241,319
835.650635,305
835.768921,299
835.887146,319
836.005371,319
836.123596,316
836.241821,302
836.360046,333
836.478271,314
836.596497,325
836.714722,303
836.832886,311
836.95105,312
837.069336,322
837.1875,319
837.305725,327
837.423889,320
837.542053,322
837.660339,324
837.778503,321
837.896667,317
838.014832,334
838.132996,306
838.25116,320
838.369385,322
838.487488,316
838.605713,292
838.723877,315
838.84198,319
838.960205,309
839.078308,317
839.196472,319
839.314636,323
839.4328,318
839.550964,318
839.669067,322
839.787231,324
839.905396,323
840.023499,311
840.141602,321
840.259766,320
840.377869,316
840.495972,312
840.614136,313
840.732239,317
840.850342,313
840.968445,322
841.086548,303
841.204651,307
841.322754,318
841.440918,326
841.55896,319
841.677002,314
841.795166,335
841.913208,324
842.031311,315
842.149353,310
842.267456,308
842.385498,317
842.503601,311
842.621643,319
842.739746,325
842.857788,312
842.97583,319
843.093933,318
843.211975,326
843.330017,301
843.44812,319
843.566101,306
843.684204,327
843.802246,320
843.920227,328
844.038269,316
844.156311,316
844.274292,311
844.392395,308
844.510376,313
844.628357,310
844.74646,319
844.864441,321
844.982422,311
845.100403,299
845.218384,311
845.336426,311
845.454468,326
845.572449,316
845.69043,319
845.808411,320
845.926453,318
846.044373,315
846.162354,320
846.280396,319
846.398315,317
846.516296,302
846.634216,325
846.752197,319
846.870178,315
846.988098,320
847.106079,322
847.22406,319
847.34198,314
847.4599,323
847.577881,322
847.695801,306
847.813782,322
847.931641,321
848.049561,317
848.167603,326
848.285461,317
848.403381,312
848.521362,307
848.639221,315
848.75708,314
848.875,322
848.99292,315
849.110901,311
849.22876,315
849.34668,303
849.464539,310
849.582458,319
849.700317,314
849.818176,325
849.936096,312
850.053955,322
850.171875,312
850.289673,316
850.407593,319
850.525452,319
850.643311,312
850.761169,331
850.878967,312
850.996887,327
851.114746,321
851.232544,324
851.350403,318
851.468262,306
851.58606,328
851.703979,314
851.821777,319
851.939636,327
852.057434,318
852.175232,331
852.293091,307
852.410889,317
852.528687,322
852.646545,311
852.764343,320
852.88208,319
852.999939,306
853.117676,317
853.235535,296
853.353271,327
853.471069,310
853.588928,310
853.706604,303
853.824402,333
853.9422,327
854.059998,325
854.177734,310
854.295532,324
854.413269,314
854.531006,321
854.648804,328
854.766541,321
854.884277,314
855.002014,333
855.119751,310
855.237549,322
855.355225,319
855.473022,322
855.590698,308
855.708435,324
855.826172,310
855.943848,325
856.061646,313
856.179321,325
856.296997,328
856.414795,326
856.53241,304
856.650085,313
856.767822,317
856.885559,317
857.003174,315
857.120911,325
857.238586,316
857.356201,331
857.473938,316
857.591614,313
857.709351,314
857.826965,323
857.944641,307
858.062317,339
858.179993,311
858.297668,322
858.415283,306
858.532959,313
858.650574,321
858.768188,316
858.885803,311
859.003479,324
859.121094,310
859.23877,338
859.356384,316
859.473999,317
859.591675,330
859.709229,329
859.826843,304
859.944458,314
860.062012,320
860.179626,332
860.297302,313
860.414856,330
860.532471,312
860.650024,320
860.767639,321
860.885193,325
861.002808,318
861.120361,322
861.237976,318
861.35553,307
861.473022,299
861.590698,331
861.708191,316
861.825745,323
861.943298,310
862.060852,312
862.178406,320
862.295959,312
862.413513,311
862.531006,330
862.64856,319
862.766113,337
862.883667,308
863.00116,328
863.118713,318
863.236206,324
863.353699,311
863.471252,311
863.588745,298
863.706177,308
863.82373,302
863.941162,310
864.058716,317
864.176208,312
864.29364,320
864.411194,308
864.528687,322
864.646118,322
864.763611,313
864.881042,320
864.998535,309
865.116028,327
865.233459,305
865.350891,310
865.468384,316
865.585754,318
865.703308,309
865.820679,321
865.938171,315
866.055542,313
866.173035,310
866.290466,324
866.407837,320
866.52533,303
866.6427,306
866.760071,316
866.877563,323
866.994934,334
867.112305,316
867.229736,324
867.347107,308
867.464539,333
867.58197,315
867.699341,324
867.81665,322
867.934082,314
868.051453,317
868.168823,309
868.286194,313
868.403564,325
868.520935,325
868.638306,328
868.755676,319
868.872986,316
868.990295,316
869.107727,317
869.225037,312
869.342346,307
869.459717,306
869.577026,325
869.694336,307
869.811707,311
869.929016,327
870.046326,323
870.163635,322
870.280945,321
870.398254,321
870.515564,304
870.632812,305
870.750183,329
870.867432,312
870.984741,331
871.102051,306
871.219299,334
871.336609,320
871.453918,319
871.571106,320
871.688416,323
871.805664,315
871.922852,331
872.040222,308
872.157471,325
872.274719,311
872.391968,329
872.509155,314
872.626465,312
872.743652,320
872.860962,323
872.978149,304
873.095337,325
873.212646,318
873.329834,316
873.44696,309
873.564209,312
873.681396,304
873.798645,317
873.915894,303
874.03302,308
874.150208,321
874.267456,321
874.384583,320
874.501831,321
874.618958,303
874.736145,307
874.853333,308
874.970459,314
875.087646,318
875.204834,319
875.32196,318
875.439148,315
875.556274,313
875.673401,321
875.790527,320
875.907715,316
876.024841,311
876.141968,310
876.259094,323
876.376282,320
876.493347,313
876.610474,341
876.7276,311
876.844727,326
876.961853,318
877.078918,321
877.195984,311
877.313171,318
877.430237,315
877.547302,322
877.664368,312
877.781433,321
877.898499,322
878.015625,308
878.13269,308
878.249695,317
878.366821,323
878.483887,312
878.600952,309
878.717957,318
878.834961,305
878.952087,323
879.069092,318
879.186157,331
879.303162,315
879.420227,312
879.537231,320
879.654236,311
879.77124,313
879.888306,320
880.005249,309
880.122314,319
880.239319,309
880.356323,326
880.473328,311
880.590271,325
880.707275,316
880.824341,312
880.941284,323
881.058228,316
881.175232,310
881.292236,325
881.40918,317
881.526123,308
881.643066,305
881.760071,330
881.877014,317
881.993958,308
882.11084,315
882.227783,314
882.344727,319
882.46167,318
882.578613,314
882.695618,315
882.812439,314
882.929382,315
883.046326,322
883.163208,308
883.280151,313
883.397034,320
883.513916,312
883.630798,312
883.747742,308
883.864563,315
883.981506,318
884.098389,316
884.21521,305
884.332153,323
884.448975,319
884.565796,318
884.682678,317
884.7995,321
884.916443,321
885.033264,319
885.150085,317
885.266968,312
885.383789,307
885.500671,329
885.617493,315
885.734314,322
885.851196,312
885.967896,323
886.084717,301
886.201599,324
886.318359,334
886.435181,320
886.552002,310
886.668762,325
886.785645,313
886.902344,314
887.019165,313
887.135925,337
887.252747,311
887.369446,316
887.486267,310
887.603027,308
887.719788,317
887.836548,312
887.953247,317
888.070068,319
888.186829,307
888.303528,330
888.420288,314
888.536987,305
888.653687,324
888.770447,320
888.887146,316
889.003967,328
889.120667,315
889.237305,316
889.354065,307
889.470703,321
889.587463,301
889.704163,328
889.820862,315
889.937561,314
890.054199,322
890.170837,324
890.287598,316
890.404236,325
890.520874,319
890.637634,307
890.754211,302
890.87085,325
890.987549,313
891.104187,325
891.220886,314
891.337463,312
891.454102,317
891.57074,316
891.687378,299
891.804077,320
891.920654,318
892.037231,323
892.15387,315
892.270447,321
892.387085,317
892.503723,313
892.6203,310
892.736877,312
892.853516,325
892.970032,321
893.08667,315
893.203186,334
893.319763,311
893.43634,318
893.552917,316
893.669556,318
893.786011,314
893.902588,313
894.019165,309
894.135681,323
894.252197,309
894.368835,320
894.485291,307
894.601868,328
894.718384,317
894.8349,322
894.951355,317
895.067932,329
895.184448,316
895.300964,314
895.417419,310
895.533936,322
895.650452,315
895.766907,308
895.883423,311
895.999878,339
896.116333,323
896.232849,332
896.349304,297
896.465759,325
896.582214,306
896.698669,328
896.815125,315
896.931641,317
897.048035,311
897.164551,334
897.280884,305
897.397339,318
897.513794,323
897.630249,331
897.746582,312
897.863098,324
897.979431,317
898.095886,336
898.212341,312
898.328674,320
898.445129,321
898.561462,319
898.677795,310
898.794312,309
898.910645,311
899.026978,327
899.143433,320
899.259766,323
899.37616,325
899.492493,314
899.608765,314
899.725159,326
899.841553,316
899.957947,317
900.07428,311
900.190552,320
900.306946,319
900.423157,318
900.53949,309
900.655884,315
900.772156,325
900.888489,325
901.004822,318
901.121033,320
901.237366,322
901.353699,309
901.46991,314
901.586304,316
901.702515,308
901.818787,328
901.93512,306
902.051331,317
902.167603,310
902.283875,315
902.400085,316
902.516418,322
902.632629,310
902.74884,324
902.865112,322
902.981384,313
903.097595,317
903.213867,327
903.330017,320
903.446289,329
903.5625,307
903.67865,321
903.794922,313
903.911072,314
904.027344,326
904.143494,327
904.259705,307
904.375916,319
904.492065,313
904.608215,317
904.724426,304
904.840576,323
904.956726,308
905.072876,323
905.189087,316
905.305176,310
905.421387,312
905.537537,337
905.653687,303
905.769775,307
905.885925,323
906.002014,318
906.118164,323
906.234314,317
906.350403,322
906.466492,319
906.582642,316
906.69873,330
906.814758,310
906.930908,308
907.046936,316
907.163086,310
907.279175,307
907.395264,318
907.511353,304
907.62738,329
907.743408,319
907.859497,321
907.975525,328
908.091553,317
908.207703,323
908.32373,327
908.439758,316
908.555786,320
908.671814,326
908.787842,317
908.90387,312
909.019775,324
909.135864,316
909.251892,324
909.367859,324
909.483826,315
909.599854,325
909.715881,313
909.831848,317
909.947815,317
910.063782,317
910.179749,333
910.295776,318
910.411743,308
910.527649,320
910.643616,314
910.759583,319
910.875488,326
910.991455,312
911.107361,317
911.223267,314
911.339294,316
911.4552,311
911.571106,316
911.687073,319
911.802979,314
911.918823,311
912.034729,323
912.150635,308
912.266602,314
912.382446,307
912.498352,319
912.614197,317
912.730103,329
912.846008,321
792.44574,321
792.56488,364
792.68396,399
792.80304,384
792.92218,332
793.041199,303
793.160339,327
793.279419,320
793.398499,346
793.517578,303
793.636658,310
793.755737,328
793.874817,362
793.993896,325
794.112976,342
794.232056,331
794.351074,333
794.470215,316
794.589233,332
794.708313,316
794.827393,333
794.946411,334
795.065552,320
795.18457,348
795.303589,338
795.422668,318
795.541687,332
795.660767,337
795.779846,331
795.898865,321
796.017883,336
796.136963,328
796.255981,331
796.375061,327
796.49408,345
796.613037,328
796.732117,334
796.851135,336
796.970154,323
797.089233,330
797.208191,322
797.327271,325
797.446228,325
797.565186,310
797.684265,326
797.803223,319
797.922241,333
798.04126,326
798.160278,332
798.279297,324
798.398315,328
798.517273,331
798.636292,323
798.75531,318
798.874268,333
798.993286,328
799.112244,345
799.231323,322
799.350281,336
799.469238,324
799.588257,327
799.707153,326
799.826111,346
799.945129,314
800.064087,335
800.183044,343
800.302063,328
800.421021,346
800.539978,321
800.658936,326
800.777893,315
800.896912,334
801.015747,327
801.134705,342
801.253723,333
801.37262,337
801.491638,333
801.610535,318
801.729492,332
801.84845,317
801.967407,350
802.086243,319
802.205261,326
802.324158,320
802.443115,333
802.562073,323
802.680969,335
802.799927,335
802.918762,328
803.037659,323
803.156677,325
803.275574,329
803.39447,322
803.513428,325
803.632263,342
803.751221,328
803.870117,330
803.989014,314
804.107971,332
804.226746,346
804.345642,321
804.4646,339
804.583496,326
804.702393,343
804.821228,339
804.940125,329
805.059021,321
805.177917,334
805.296814,345
805.415649,313
805.534546,335
805.653442,343
805.772278,331
805.891113,318
806.01001,346
806.128906,337
806.247742,328
806.366577,315
806.485413,335
806.604309,328
806.723145,335
806.84198,332
806.960876,333
807.079712,323
807.198486,336
807.317383,321
807.436218,345
807.554993,313
807.673889,332
807.792725,335
807.91156,327
808.030396,332
808.14917,330
808.268005,318
808.386841,329
808.505676,321
808.624451,335
808.743286,332
808.862122,325
808.980896,334
809.099731,313
809.218506,321
809.337341,332
809.456116,340
809.57489,351
809.693726,333
809.8125,343
809.931274,321
810.050049,327
810.168884,342
810.287659,334
810.406372,334
810.525269,340
810.643982,319
810.762756,343
810.881531,322
811.000305,342
811.11908,335
811.237854,337
811.356567,336
811.475403,327
811.594116,320
811.71283,326
811.831604,329
811.950378,333
812.069153,337
812.187927,330
812.30658,331
812.425415,339
812.544128,343
812.662781,352
812.781616,342
812.900269,339
813.019043,333
813.137756,317
813.256531,322
813.375244,339
813.493896,321
813.612671,342
813.731384,318
813.850037,321
813.96875,334
814.087524,331
814.206238,318
814.324951,349
814.443604,326
814.562256,337
814.68103,325
814.799683,335
814.918335,342
815.037109,332
815.155762,334
815.274475,323
815.393188,325
815.511841,331
815.630554,329
815.749146,332
815.867859,332
815.986572,332
816.105164,321
816.223877,339
816.342529,326
816.461182,334
816.579895,316
816.698486,336
816.817139,312
816.935791,347
817.054504,323
817.173096,343
817.291748,324
817.4104,321
817.529053,344
817.647644,340
817.766235,330
817.884949,334
818.00354,310
818.122192,328
818.240845,331
818.359436,325
818.478088,315
818.59668,333
818.715271,305
818.833923,315
818.952515,321
819.071106,327
819.189758,319
819.30835,323
819.426941,310
819.545532,319
819.664124,325
819.782715,315
819.901306,322
820.019897,333
820.138489,326
820.25708,313
820.375671,319
820.494202,325
820.612732,322
820.731384,322
820.849915,303
820.968506,329
821.087097,310
821.205627,327
821.324158,308
821.442749,320
821.561279,311
821.679871,320
821.798401,320
821.916931,311
822.035461,320
822.154053,308
822.272583,309
822.391174,331
822.509583,322
822.628174,319
822.746704,308
822.865234,324
822.983765,322
823.102295,324
823.220825,331
823.339294,323
823.457825,324
823.576355,322
823.694824,324
823.813354,318
823.931885,311
824.050354,320
824.168884,318
824.287354,321
824.405823,318
824.524353,313
824.642822,326
824.761353,321
824.879822,320
824.998291,331
825.116699,320
825.235291,325
825.353699,303
825.472168,312
825.590637,316
825.709106,324
825.827576,317
825.946045,318
826.064453,317
826.182983,318
826.301392,294
826.4198,325
826.53833,317
826.656738,304
826.775208,313
826.893677,318
827.012024,318
827.130493,319
827.248962,327
827.36731,318
827.485779,309
827.604248,317
827.722595,309
827.841064,310
827.959412,319
828.077942,322
828.196289,324
828.314636,325
828.433105,314
828.551514,326
828.669861,313
828.78833,324
828.906677,308
829.025085,345
829.143433,311
829.261841,317
829.38031,310
829.498657,320
829.617004,307
829.735413,317
829.85376,312
829.972107,327
830.090515,310
830.208862,327
830.327209,317
830.445557,329
830.563904,322
830.682312,309
830.800659,312
830.919006,328
831.037354,306
831.155701,312
831.274048,325
831.392395,313
831.51062,322
831.629028,317
831.747314,317
831.865662,323
831.984009,312
832.102356,321
832.220642,309
832.338928,314
832.457275,320
832.575623,323
832.693909,310
832.812134,315
832.930481,323
833.048828,322
833.167114,316
833.2854,322
833.403687,321
833.521973,326
833.640259,318
833.758545,324
833.876831,309
833.995056,313
834.113281,313
834.231628,329
834.349915,306
834.468201,309
834.586426,303
834.704651,315
834.822998,324
834.941162,313
835.059448,309
835.177673,332
835.295959,305
835.414246,310
835.53241,318
835.650635,328
835.768921,321
835.887146,319
836.005371,317
836.123596,320
836.241821,311
836.360046,316
836.478271,306
836.596497,322
836.714722,319
836.832886,326
836.95105,325
837.069336,319
837.1875,312
837.305725,322
837.423889,314
837.542053,337
837.660339,323
837.778503,333
837.896667,316
838.014832,324
838.132996,308
838.25116,330
838.369385,325
838.487488,311
838.605713,320
838.723877,311
838.84198,329
838.960205,333
839.078308,313
839.196472,319
839.314636,311
839.4328,322
839.550964,313
839.669067,321
839.787231,310
839.905396,310
840.023499,318
840.141602,322
840.259766,307
840.377869,317
840.495972,310
840.614136,314
840.732239,319
840.850342,319
840.968445,317
841.086548,339
841.204651,320
841.322754,316
841.440918,318
841.55896,309
841.677002,312
841.795166,319
841.913208,311
842.031311,317
842.149353,320
842.267456,323
842.385498,329
842.503601,321
842.621643,321
842.739746,325
842.857788,323
842.97583,319
843.093933,318
843.211975,309
843.330017,312
843.44812,311
843.566101,314
843.684204,310
843.802246,296
843.920227,322
844.038269,305
844.156311,319
844.274292,330
844.392395,318
844.510376,312
844.628357,325
844.74646,319
844.864441,312
844.982422,321
845.100403,313
845.218384,300
845.336426,319
845.454468,308
845.572449,304
845.69043,319
845.808411,326
845.926453,320
846.044373,318
846.162354,314
846.280396,321
846.398315,317
846.516296,320
846.634216,308
846.752197,319
846.870178,321
846.988098,325
847.106079,314
847.22406,316
847.34198,311
847.4599,318
847.577881,308
847.695801,321
847.813782,309
847.931641,317
848.049561,314
848.167603,320
848.285461,324
848.403381,318
848.521362,319
848.639221,306
848.75708,305
848.875,315
848.99292,311
849.110901,320
849.22876,307
849.34668,314
849.464539,319
849.582458,318
849.700317,307
849.818176,317
849.936096,313
850.053955,318
850.171875,310
850.289673,314
850.407593,307
850.525452,313
850.643311,303
850.761169,309
850.878967,308
850.996887,307
851.114746,309
851.232544,322
851.350403,309
851.468262,320
851.58606,303
851.703979,327
851.821777,316
851.939636,321
852.057434,316
852.175232,303
852.293091,311
852.410889,319
852.528687,307
852.646545,312
852.764343,322
852.88208,314
852.999939,315
853.117676,320
853.235535,315
853.353271,315
853.471069,317
853.588928,313
853.706604,309
853.824402,318
853.9422,313
854.059998,313
854.177734,309
854.295532,321
854.413269,305
854.531006,315
854.648804,318
854.766541,312
854.884277,300
855.002014,310
855.119751,315
855.237549,316
855.355225,325
855.473022,321
855.590698,307
855.708435,315
855.826172,318
855.943848,315
856.061646,315
856.179321,307
856.296997,314
856.414795,320
856.53241,321
856.650085,319
856.767822,307
856.885559,327
857.003174,322
857.120911,304
857.238586,322
857.356201,303
857.473938,318
857.591614,306
857.709351,322
857.826965,314
857.944641,301
858.062317,324
858.179993,307
858.297668,308
858.415283,320
858.532959,312
858.650574,321
858.768188,327
858.885803,308
859.003479,303
859.121094,305
859.23877,325
859.356384,319
859.473999,326
859.591675,313
859.709229,317
859.826843,307
859.944458,318
860.062012,315
860.179626,327
860.297302,303
860.414856,319
860.532471,320
860.650024,311
860.767639,306
860.885193,316
861.002808,319
861.120361,320
861.237976,309
861.35553,316
861.473022,324
861.590698,322
861.708191,311
861.825745,330
861.943298,315
862.060852,319
862.178406,317
862.295959,312
862.413513,326
862.531006,333
862.64856,320
862.766113,323
862.883667,300
863.00116,314
863.118713,299
863.236206,312
863.353699,317
863.471252,308
863.588745,325
863.706177,311
863.82373,324
863.941162,310
864.058716,309
864.176208,325
864.29364,316
864.411194,322
864.528687,315
864.646118,319
864.763611,311
864.881042,320
864.998535,325
865.116028,322
865.233459,327
865.350891,323
865.468384,312
865.585754,318
865.703308,319
865.820679,325
865.938171,318
866.055542,314
866.173035,312
866.290466,318
866.407837,311
866.52533,323
866.6427,320
866.760071,325
866.877563,332
866.994934,310
867.112305,318
867.229736,318
867.347107,317
867.464539,321
867.58197,330
867.699341,308
867.81665,319
867.934082,328
868.051453,321
868.168823,322
868.286194,316
868.403564,322
868.520935,305
868.638306,318
868.755676,303
868.872986,323
868.990295,301
869.107727,318
869.225037,308
869.342346,310
869.459717,316
869.577026,319
869.694336,332
869.811707,320
869.929016,299
870.046326,318
870.163635,309
870.280945,333
870.398254,323
870.515564,312
870.632812,316
870.750183,315
870.867432,303
870.984741,310
871.102051,313
871.219299,311
871.336609,308
871.453918,320
871.571106,313
871.688416,329
871.805664,310
871.922852,329
872.040222,315
872.157471,311
872.274719,331
872.391968,326
872.509155,319
872.626465,318
872.743652,303
872.860962,316
872.978149,299
873.095337,319
873.212646,323
873.329834,311
873.44696,322
873.564209,317
873.681396,311
873.798645,327
873.915894,315
874.03302,314
874.150208,321
874.267456,316
874.384583,315
874.501831,312
874.618958,302
874.736145,332
874.853333,309
874.970459,316
875.087646,316
875.204834,319
875.32196,313
875.439148,322
875.556274,308
875.673401,313
875.790527,311
875.907715,311
876.024841,313
876.141968,315
876.259094,326
876.376282,307
876.493347,332
876.610474,321
876.7276,309
876.844727,313
876.961853,305
877.078918,327
877.195984,313
877.313171,314
877.430237,322
877.547302,316
877.664368,312
877.781433,328
877.898499,320
878.015625,324
878.13269,317
878.249695,326
878.366821,323
878.483887,319
878.600952,305
878.717957,321
878.834961,320
878.952087,328
879.069092,303
879.186157,334
879.303162,328
879.420227,311
879.537231,308
879.654236,316
879.77124,323
879.888306,321
880.005249,316
880.122314,327
880.239319,303
880.356323,333
880.473328,321
880.590271,320
880.707275,306
880.824341,328
880.941284,309
881.058228,320
881.175232,311
881.292236,325
881.40918,293
881.526123,329
881.643066,322
881.760071,333
881.877014,321
881.993958,317
882.11084,302
882.227783,330
882.344727,307
882.46167,320
882.578613,318
882.695618,319
882.812439,309
882.929382,323
883.046326,319
883.163208,330
883.280151,310
883.397034,321
883.513916,322
883.630798,308
883.747742,307
883.864563,323
883.981506,307
884.098389,329
884.21521,323
884.332153,321
884.448975,319
884.565796,320
884.682678,312
884.7995,311
884.916443,314
885.033264,320
885.150085,316
885.266968,305
885.383789,326
885.500671,308
885.617493,312
885.734314,317
885.851196,325
885.967896,328
886.084717,313
886.201599,313
886.318359,319
886.435181,313
886.552002,325
886.668762,323
886.785645,317
886.902344,327
887.019165,317
887.135925,317
887.252747,322
887.369446,304
887.486267,306
887.603027,332
887.719788,299
887.836548,323
887.953247,315
888.070068,324
888.186829,309
888.303528,337
888.420288,301
888.536987,333
888.653687,305
888.770447,326
888.887146,312
889.003967,308
889.120667,305
889.237305,315
889.354065,315
889.470703,317
889.587463,328
889.704163,313
889.820862,318
889.937561,325
890.054199,318
890.170837,327
890.287598,318
890.404236,317
890.520874,319
890.637634,326
890.754211,320
890.87085,315
890.987549,315
891.104187,324
891.220886,320
891.337463,328
891.454102,302
891.57074,312
891.687378,313
891.804077,321
891.920654,317
892.037231,322
892.15387,314
892.270447,319
892.387085,317
892.503723,318
892.6203,335
892.736877,326
892.853516,308
892.970032,323
893.08667,303
893.203186,314
893.319763,317
893.43634,330
893.552917,300
893.669556,322
893.786011,324
893.902588,336
894.019165,319
894.135681,324
894.252197,318
894.368835,326
894.485291,303
894.601868,331
894.718384,317
894.8349,321
894.951355,305
895.067932,307
895.184448,317
895.300964,317
895.417419,324
895.533936,324
895.650452,313
895.766907,335
895.883423,321
895.999878,317
896.116333,325
896.232849,321
896.349304,308
896.465759,331
896.582214,315
896.698669,319
896.815125,310
896.931641,314
897.048035,304
897.164551,314
897.280884,302
897.397339,320
897.513794,320
897.630249,326
897.746582,319
897.863098,340
897.979431,306
898.095886,315
898.212341,311
898.328674,330
898.445129,309
898.561462,326
898.677795,310
898.794312,322
898.910645,308
899.026978,325
899.143433,318
899.259766,322
899.37616,317
899.492493,312
899.608765,320
899.725159,328
899.841553,314
899.957947,323
900.07428,316
900.190552,325
900.306946,312
900.423157,324
900.53949,306
900.655884,320
900.772156,324
900.888489,326
901.004822,318
901.121033,316
901.237366,314
901.353699,317
901.46991,326
901.586304,308
901.702515,311
901.818787,318
901.93512,314
902.051331,310
902.167603,323
902.283875,320
902.400085,320
902.516418,317
902.632629,302
902.74884,328
902.865112,325
902.981384,314
903.097595,313
903.213867,317
903.330017,327
903.446289,311
903.5625,304
903.67865,325
903.794922,308
903.911072,319
904.027344,314
904.143494,314
904.259705,308
904.375916,320
904.492065,323
904.608215,317
904.724426,315
904.840576,321
904.956726,314
905.072876,312
905.189087,302
905.305176,322
905.421387,312
905.537537,328
905.653687,315
905.769775,307
905.885925,320
906.002014,312
906.118164,315
906.234314,310
906.350403,311
906.466492,315
906.582642,301
906.69873,308
906.814758,332
906.930908,324
907.046936,311
907.163086,323
907.279175,318
907.395264,317
907.511353,318
907.62738,309
907.743408,314
907.859497,317
907.975525,313
908.091553,327
908.207703,316
908.32373,326
908.439758,326
908.555786,321
908.671814,317
908.787842,307
908.90387,316
909.019775,325
909.135864,316
909.251892,326
909.367859,313
909.483826,324
909.599854,309
909.715881,324
909.831848,318
909.947815,322
910.063782,322
910.179749,323
910.295776,321
910.411743,323
910.527649,318
910.643616,334
910.759583,311
910.875488,319
910.991455,312
911.107361,312
911.223267,318
911.339294,321
911.4552,307
911.571106,316
911.687073,308
911.802979,321
911.918823,320
912.034729,331
912.150635,307
912.266602,312
912.382446,294
912.498352,317
912.614197,331
912.730103,338
912.846008,321
