792.44574,326
792.56488,356
792.68396,389
792.80304,383
792.92218,333
793.041199,327
793.160339,312
793.279419,329
793.398499,325
793.517578,321
793.636658,318
793.755737,346
793.874817,354
793.993896,350
794.112976,339
794.232056,327
794.351074,323
794.470215,339
794.589233,327
794.708313,330
794.827393,343
794.946411,349
795.065552,340
795.18457,334
795.303589,341
795.422668,333
795.541687,337
795.660767,335
795.779846,338
795.898865,328
796.017883,335
796.136963,335
796.255981,334
796.375061,333
796.49408,327
796.613037,317
796.732117,331
796.851135,327
796.970154,338
797.089233,321
797.208191,324
797.327271,331
797.446228,326
797.565186,324
797.684265,326
797.803223,328
797.922241,328
798.04126,331
798.160278,332
798.279297,324
798.398315,327
798.517273,334
798.636292,314
798.75531,341
798.874268,337
798.993286,314
799.112244,324
799.231323,321
799.350281,329
799.469238,326
799.588257,328
799.707153,329
799.826111,314
799.945129,334
800.064087,338
800.183044,325
800.302063,331
800.421021,318
800.539978,318
800.658936,324
800.777893,334
800.896912,331
801.015747,343
801.134705,333
801.253723,326
801.37262,324
801.491638,336
801.610535,324
801.729492,339
801.84845,317
801.967407,319
802.086243,336
802.205261,337
802.324158,330
802.443115,347
802.562073,319
802.680969,333
802.799927,332
802.918762,343
803.037659,325
803.156677,336
803.275574,323
803.39447,328
803.513428,324
803.632263,323
803.751221,327
803.870117,335
803.989014,327
804.107971,337
804.226746,329
804.345642,327
804.4646,334
804.583496,326
804.702393,336
804.821228,348
804.940125,333
805.059021,338
805.177917,340
805.296814,314
805.415649,326
805.534546,317
805.653442,336
805.772278,339
805.891113,323
806.01001,328
806.128906,336
806.247742,332
806.366577,329
806.485413,344
806.604309,337
806.723145,329
806.84198,325
806.960876,337
807.079712,321
807.198486,345
807.317383,338
807.436218,335
807.554993,328
807.673889,319
807.792725,333
807.91156,329
808.030396,329
808.14917,342
808.268005,335
808.386841,338
808.505676,323
808.624451,334
808.743286,309
808.862122,319
808.980896,330
809.099731,331
809.218506,329
809.337341,338
809.456116,322
809.57489,342
809.693726,329
809.8125,324
809.931274,334
810.050049,337
810.168884,339
810.287659,341
810.406372,334
810.525269,333
810.643982,331
810.762756,334
810.881531,335
811.000305,345
811.11908,342
811.237854,319
811.356567,322
811.475403,319
811.594116,339
811.71283,325
811.831604,321
811.950378,334
812.069153,347
812.187927,348
812.30658,336
812.425415,322
812.544128,326
812.662781,325
812.781616,330
812.900269,339
813.019043,333
813.137756,343
813.256531,319
813.375244,328
813.493896,338
813.612671,331
813.731384,334
813.850037,336
813.96875,334
814.087524,340
814.206238,347
814.324951,318
814.443604,328
814.562256,340
814.68103,326
814.799683,332
814.918335,337
815.037109,335
815.155762,337
815.274475,332
815.393188,327
815.511841,321
815.630554,330
815.749146,319
815.867859,327
815.986572,336
816.105164,330
816.223877,319
816.342529,332
816.461182,326
816.579895,326
816.698486,339
816.817139,327
816.935791,330
817.054504,331
817.173096,347
817.291748,329
817.4104,331
817.529053,337
817.647644,333
817.766235,330
817.884949,321
818.00354,322
818.122192,323
818.240845,323
818.359436,325
818.478088,330
818.59668,335
818.715271,333
818.833923,321
818.952515,327
819.071106,311
819.189758,326
819.30835,314
819.426941,337
819.545532,324
819.664124,322
819.782715,309
819.901306,320
820.019897,338
820.138489,323
820.25708,322
820.375671,313
820.494202,311
820.612732,313
820.731384,327
820.849915,327
820.968506,319
821.087097,323
821.205627,318
821.324158,316
821.442749,321
821.561279,329
821.679871,316
821.798401,316
821.916931,302
822.035461,337
822.154053,319
822.272583,324
822.391174,309
822.509583,315
822.628174,320
822.746704,323
822.865234,315
822.983765,322
823.102295,323
823.220825,319
823.339294,318
823.457825,320
823.576355,326
823.694824,321
823.813354,322
823.931885,317
824.050354,316
824.168884,315
824.287354,317
824.405823,313
824.524353,316
824.642822,318
824.761353,309
824.879822,318
824.998291,322
825.116699,328
825.235291,318
825.353699,328
825.472168,316
825.590637,323
825.709106,309
825.827576,320
825.946045,317
826.064453,310
826.182983,315
826.301392,311
826.4198,327
826.53833,315
826.656738,311
826.775208,320
826.893677,325
827.012024,308
827.130493,320
827.248962,311
827.36731,322
827.485779,306
827.604248,319
827.722595,321
827.841064,317
827.959412,323
828.077942,301
828.196289,317
828.314636,306
828.433105,308
828.551514,316
828.669861,309
828.78833,321
828.906677,310
829.025085,319
829.143433,316
829.261841,314
829.38031,314
829.498657,322
829.617004,312
829.735413,313
829.85376,320
829.972107,314
830.090515,316
830.208862,297
830.327209,305
830.445557,322
830.563904,317
830.682312,321
830.800659,319
830.919006,312
831.037354,313
831.155701,320
831.274048,314
831.392395,314
831.51062,320
831.629028,309
831.747314,315
831.865662,328
831.984009,323
832.102356,311
832.220642,313
832.338928,314
832.457275,320
832.575623,303
832.693909,330
832.812134,319
832.930481,319
833.048828,316
833.167114,311
833.2854,324
833.403687,324
833.521973,302
833.640259,318
833.758545,314
833.876831,301
833.995056,323
834.113281,326
834.231628,326
834.349915,305
834.468201,318
834.586426,306
834.704651,321
834.822998,316
834.941162,315
835.059448,327
835.177673,324
835.295959,310
835.414246,323
835.53241,311
835.650635,323
835.768921,311
835.887146,323
836.005371,312
836.123596,310
836.241821,324
836.360046,319
836.478271,303
836.596497,313
836.714722,313
836.832886,333
836.95105,326
837.069336,315
837.1875,326
837.305725,309
837.423889,312
837.542053,314
837.660339,322
837.778503,321
837.896667,320
838.014832,312
838.132996,313
838.25116,325
838.369385,314
838.487488,322
838.605713,311
838.723877,327
838.84198,314
838.960205,324
839.078308,308
839.196472,312
839.314636,307
839.4328,308
839.550964,314
839.669067,326
839.787231,317
839.905396,322
840.023499,316
840.141602,329
840.259766,324
840.377869,323
840.495972,314
840.614136,326
840.732239,321
840.850342,312
840.968445,319
841.086548,317
841.204651,324
841.322754,311
841.440918,312
841.55896,328
841.677002,329
841.795166,314
841.913208,332
842.031311,316
842.149353,309
842.267456,320
842.385498,326
842.503601,331
842.621643,321
842.739746,323
842.857788,323
842.97583,309
843.093933,319
843.211975,318
843.330017,321
843.44812,316
843.566101,324
843.684204,309
843.802246,314
843.920227,319
844.038269,318
844.156311,305
844.274292,315
844.392395,296
844.510376,318
844.628357,310
844.74646,312
844.864441,316
844.982422,313
845.100403,303
845.218384,326
845.336426,307
845.454468,322
845.572449,310
845.69043,310
845.808411,317
845.926453,311
846.044373,319
846.162354,314
846.280396,327
846.398315,311
846.516296,325
846.634216,316
846.752197,317
846.870178,314
846.988098,319
847.106079,325
847.22406,311
847.34198,308
847.4599,323
847.577881,330
847.695801,313
847.813782,327
847.931641,301
848.049561,315
848.167603,315
848.285461,310
848.403381,308
848.521362,326
848.639221,310
848.75708,333
848.875,316
848.99292,310
849.110901,310
849.22876,321
849.34668,313
849.464539,325
849.582458,325
849.700317,319
849.818176,320
849.936096,320
850.053955,321
850.171875,311
850.289673,307
850.407593,303
850.525452,326
850.643311,317
850.761169,318
850.878967,315
850.996887,324
851.114746,317
851.232544,301
851.350403,321
851.468262,321
851.58606,331
851.703979,310
851.821777,321
851.939636,317
852.057434,325
852.175232,311
852.293091,317
852.410889,305
852.528687,309
852.646545,298
852.764343,308
852.88208,311
852.999939,315
853.117676,317
853.235535,323
853.353271,321
853.471069,324
853.588928,314
853.706604,326
853.824402,326
853.9422,316
854.059998,317
854.177734,315
854.295532,329
854.413269,317
854.531006,310
854.648804,317
854.766541,325
854.884277,306
855.002014,314
855.119751,319
855.237549,314
855.355225,319
855.473022,321
855.590698,306
855.708435,320
855.826172,328
855.943848,327
856.061646,323
856.179321,302
856.296997,332
856.414795,323
856.53241,317
856.650085,317
856.767822,301
856.885559,309
857.003174,313
857.120911,320
857.238586,321
857.356201,318
857.473938,316
857.591614,307
857.709351,324
857.826965,321
857.944641,307
858.062317,305
858.179993,319
858.297668,320
858.415283,313
858.532959,307
858.650574,325
858.768188,326
858.885803,318
859.003479,310
859.121094,321
859.23877,308
859.356384,319
859.473999,318
859.591675,316
859.709229,307
859.826843,313
859.944458,305
860.062012,313
860.179626,313
860.297302,320
860.414856,317
860.532471,320
860.650024,331
860.767639,325
860.885193,318
861.002808,326
861.120361,314
861.237976,329
861.35553,310
861.473022,309
861.590698,308
861.708191,313
861.825745,326
861.943298,324
862.060852,312
862.178406,324
862.295959,307
862.413513,308
862.531006,322
862.64856,311
862.766113,316
862.883667,318
863.00116,319
863.118713,310
863.236206,307
863.353699,324
863.471252,306
863.588745,325
863.706177,306
863.82373,319
863.941162,317
864.058716,315
864.176208,310
864.29364,320
864.411194,331
864.528687,313
864.646118,321
864.763611,331
864.881042,307
864.998535,327
865.116028,322
865.233459,318
865.350891,324
865.468384,325
865.585754,326
865.703308,310
865.820679,311
865.938171,324
866.055542,310
866.173035,313
866.290466,327
866.407837,301
866.52533,318
866.6427,320
866.760071,314
866.877563,319
866.994934,304
867.112305,300
867.229736,314
867.347107,321
867.464539,321
867.58197,325
867.699341,310
867.81665,324
867.934082,304
868.051453,320
868.168823,314
868.286194,315
868.403564,319
868.520935,311
868.638306,301
868.755676,312
868.872986,326
868.990295,304
869.107727,313
869.225037,316
869.342346,307
869.459717,316
869.577026,309
869.694336,315
869.811707,314
869.929016,320
870.046326,321
870.163635,318
870.280945,313
870.398254,329
870.515564,324
870.632812,313
870.750183,306
870.867432,319
870.984741,321
871.102051,313
871.219299,337
871.336609,316
871.453918,306
871.571106,322
871.688416,307
871.805664,320
871.922852,325
872.040222,308
872.157471,305
872.274719,318
872.391968,324
872.509155,324
872.626465,312
872.743652,332
872.860962,318
872.978149,322
873.095337,323
873.212646,325
873.329834,311
873.44696,307
873.564209,324
873.681396,315
873.798645,313
873.915894,325
874.03302,324
874.150208,314
874.267456,317
874.384583,327
874.501831,318
874.618958,308
874.736145,320
874.853333,326
874.970459,315
875.087646,320
875.204834,318
875.32196,329
875.439148,331
875.556274,313
875.673401,315
875.790527,327
875.907715,312
876.024841,322
876.141968,321
876.259094,320
876.376282,314
876.493347,325
876.610474,316
876.7276,327
876.844727,324
876.961853,313
877.078918,325
877.195984,326
877.313171,319
877.430237,322
877.547302,307
877.664368,321
877.781433,312
877.898499,321
878.015625,322
878.13269,321
878.249695,328
878.366821,324
878.483887,308
878.600952,314
878.717957,315
878.834961,328
878.952087,326
879.069092,315
879.186157,327
879.303162,330
879.420227,310
879.537231,307
879.654236,325
879.77124,310
879.888306,312
880.005249,319
880.122314,324
880.239319,320
880.356323,333
880.473328,326
880.590271,322
880.707275,326
880.824341,298
880.941284,317
881.058228,314
881.175232,317
881.292236,316
881.40918,314
881.526123,315
881.643066,318
881.760071,306
881.877014,312
881.993958,320
882.11084,334
882.227783,331
882.344727,323
882.46167,319
882.578613,312
882.695618,307
882.812439,325
882.929382,330
883.046326,323
883.163208,315
883.280151,318
883.397034,310
883.513916,316
883.630798,317
883.747742,318
883.864563,316
883.981506,316
884.098389,326
884.21521,321
884.332153,315
884.448975,317
884.565796,316
884.682678,317
884.7995,322
884.916443,327
885.033264,315
885.150085,321
885.266968,330
885.383789,320
885.500671,313
885.617493,323
885.734314,315
885.851196,325
885.967896,315
886.084717,326
886.201599,332
886.318359,310
886.435181,324
886.552002,325
886.668762,301
886.785645,318
886.902344,321
887.019165,316
887.135925,311
887.252747,311
887.369446,323
887.486267,319
887.603027,318
887.719788,325
887.836548,310
887.953247,313
888.070068,309
888.186829,333
888.303528,327
888.420288,326
888.536987,309
888.653687,316
888.770447,314
888.887146,319
889.003967,308
889.120667,308
889.237305,310
889.354065,319
889.470703,313
889.587463,303
889.704163,314
889.820862,309
889.937561,312
890.054199,326
890.170837,308
890.287598,325
890.404236,314
890.520874,319
890.637634,325
890.754211,309
890.87085,322
890.987549,321
891.104187,314
891.220886,300
891.337463,310
891.454102,330
891.57074,319
891.687378,318
891.804077,321
891.920654,324
892.037231,316
892.15387,315
892.270447,308
892.387085,323
892.503723,321
892.6203,324
892.736877,319
892.853516,317
892.970032,318
893.08667,320
893.203186,317
893.319763,319
893.43634,326
893.552917,304
893.669556,320
893.786011,324
893.902588,311
894.019165,323
894.135681,329
894.252197,324
894.368835,327
894.485291,323
894.601868,319
894.718384,319
894.8349,308
894.951355,314
895.067932,315
895.184448,313
895.300964,309
895.417419,324
895.533936,328
895.650452,318
895.766907,328
895.883423,311
895.999878,309
896.116333,320
896.232849,320
896.349304,321
896.465759,317
896.582214,317
896.698669,325
896.815125,320
896.931641,314
897.048035,333
897.164551,304
897.280884,325
897.397339,305
897.513794,323
897.630249,318
897.746582,315
897.863098,330
897.979431,313
898.095886,321
898.212341,321
898.328674,317
898.445129,316
898.561462,316
898.677795,314
898.794312,316
898.910645,311
899.026978,313
899.143433,323
899.259766,329
899.37616,314
899.492493,310
899.608765,322
899.725159,321
899.841553,323
899.957947,304
900.07428,319
900.190552,318
900.306946,321
900.423157,322
900.53949,323
900.655884,327
900.772156,319
900.888489,329
901.004822,314
901.121033,317
901.237366,326
901.353699,317
901.46991,312
901.586304,322
901.702515,326
901.818787,335
901.93512,314
902.051331,324
902.167603,319
902.283875,321
902.400085,321
902.516418,317
902.632629,323
902.74884,325
902.865112,325
902.981384,307
903.097595,316
903.213867,332
903.330017,319
903.446289,315
903.5625,312
903.67865,321
903.794922,322
903.911072,319
904.027344,313
904.143494,315
904.259705,317
904.375916,321
904.492065,323
904.608215,310
904.724426,315
904.840576,336
904.956726,321
905.072876,322
905.189087,324
905.305176,308
905.421387,320
905.537537,316
905.653687,326
905.769775,338
905.885925,325
906.002014,316
906.118164,324
906.234314,331
906.350403,324
906.466492,327
906.582642,328
906.69873,307
906.814758,315
906.930908,320
907.046936,311
907.163086,308
907.279175,321
907.395264,316
907.511353,303
907.62738,315
907.743408,320
907.859497,312
907.975525,325
908.091553,316
908.207703,306
908.32373,314
908.439758,307
908.555786,319
908.671814,308
908.787842,322
908.90387,327
909.019775,313
909.135864,319
909.251892,319
909.367859,313
909.483826,321
909.599854,318
909.715881,304
909.831848,330
909.947815,316
910.063782,320
910.179749,315
910.295776,319
910.411743,316
910.527649,307
910.643616,323
910.759583,323
910.875488,326
910.991455,320
911.107361,317
911.223267,326
911.339294,303
911.4552,324
911.571106,312
911.687073,320
911.802979,322
911.918823,316
912.034729,320
912.150635,339
912.266602,308
912.382446,321
912.498352,303
912.614197,313
912.730103,315
912.846008,318
792.44574,324
792.56488,365
792.68396,401
792.80304,394
792.92218,316
793.041199,318
793.160339,311
793.279419,344
793.398499,330
793.517578,311
793.636658,324
793.755737,325
793.874817,335
793.993896,354
794.112976,344
794.232056,328
794.351074,326
794.470215,337
794.589233,343
794.708313,320
794.827393,335
794.946411,328
795.065552,342
795.18457,339
795.303589,341
795.422668,333
795.541687,340
795.660767,323
795.779846,331
795.898865,325
796.017883,323
796.136963,336
796.255981,340
796.375061,337
796.49408,324
796.613037,342
796.732117,335
796.851135,331
796.970154,334
797.089233,312
797.208191,332
797.327271,328
797.446228,327
797.565186,331
797.684265,331
797.803223,342
797.922241,327
798.04126,324
798.160278,321
798.279297,319
798.398315,339
798.517273,333
798.636292,330
798.75531,331
798.874268,322
798.993286,326
799.112244,335
799.231323,324
799.350281,338
799.469238,319
799.588257,327
799.707153,337
799.826111,331
799.945129,339
800.064087,333
800.183044,320
800.302063,334
800.421021,328
800.539978,337
800.658936,325
800.777893,324
800.896912,337
801.015747,351
801.134705,338
801.253723,330
801.37262,333
801.491638,334
801.610535,321
801.729492,338
801.84845,324
801.967407,327
802.086243,332
802.205261,327
802.324158,326
802.443115,327
802.562073,333
802.680969,332
802.799927,326
802.918762,323
803.037659,337
803.156677,331
803.275574,335
803.39447,332
803.513428,327
803.632263,324
803.751221,324
803.870117,318
803.989014,333
804.107971,318
804.226746,335
804.345642,333
804.4646,330
804.583496,333
804.702393,327
804.821228,329
804.940125,347
805.059021,334
805.177917,340
805.296814,326
805.415649,332
805.534546,335
805.653442,339
805.772278,312
805.891113,327
806.01001,337
806.128906,329
806.247742,328
806.366577,329
806.485413,337
806.604309,339
806.723145,335
806.84198,331
806.960876,329
807.079712,333
807.198486,327
807.317383,332
807.436218,324
807.554993,318
807.673889,337
807.792725,324
807.91156,344
808.030396,331
808.14917,334
808.268005,333
808.386841,329
808.505676,326
808.624451,325
808.743286,322
808.862122,337
808.980896,331
809.099731,317
809.218506,336
809.337341,334
809.456116,327
809.57489,329
809.693726,335
809.8125,344
809.931274,329
810.050049,332
810.168884,333
810.287659,332
810.406372,334
810.525269,334
810.643982,331
810.762756,344
810.881531,323
811.000305,333
811.11908,330
811.237854,327
811.356567,331
811.475403,327
811.594116,331
811.71283,332
811.831604,325
811.950378,335
812.069153,340
812.187927,316
812.30658,339
812.425415,335
812.544128,339
812.662781,342
812.781616,333
812.900269,340
813.019043,322
813.137756,333
813.256531,341
813.375244,327
813.493896,326
813.612671,337
813.731384,332
813.850037,340
813.96875,322
814.087524,325
814.206238,342
814.324951,325
814.443604,336
814.562256,337
814.68103,332
814.799683,334
814.918335,324
815.037109,332
815.155762,323
815.274475,321
815.393188,337
815.511841,335
815.630554,349
815.749146,326
815.867859,324
815.986572,328
816.105164,344
816.223877,319
816.342529,333
816.461182,324
816.579895,348
816.698486,315
816.817139,337
816.935791,324
817.054504,327
817.173096,323
817.291748,324
817.4104,339
817.529053,334
817.647644,322
817.766235,335
817.884949,324
818.00354,338
818.122192,328
818.240845,333
818.359436,330
818.478088,342
818.59668,312
818.715271,321
818.833923,333
818.952515,321
819.071106,324
819.189758,312
819.30835,317
819.426941,337
819.545532,322
819.664124,322
819.782715,322
819.901306,310
820.019897,321
820.138489,325
820.25708,309
820.375671,321
820.494202,329
820.612732,328
820.731384,298
820.849915,324
820.968506,319
821.087097,340
821.205627,327
821.324158,313
821.442749,319
821.561279,331
821.679871,315
821.798401,317
821.916931,316
822.035461,325
822.154053,322
822.272583,322
822.391174,308
822.509583,327
822.628174,306
822.746704,321
822.865234,316
822.983765,329
823.102295,309
823.220825,328
823.339294,326
823.457825,321
823.576355,321
823.694824,329
823.813354,333
823.931885,327
824.050354,314
824.168884,334
824.287354,338
824.405823,319
824.524353,329
824.642822,323
824.761353,312
824.879822,310
824.998291,324
825.116699,321
825.235291,304
825.353699,324
825.472168,312
825.590637,314
825.709106,319
825.827576,330
825.946045,319
826.064453,308
826.182983,316
826.301392,329
826.4198,325
826.53833,324
826.656738,320
826.775208,324
826.893677,312
827.012024,313
827.130493,308
827.248962,321
827.36731,324
827.485779,311
827.604248,314
827.722595,326
827.841064,295
827.959412,314
828.077942,310
828.196289,306
828.314636,326
828.433105,331
828.551514,310
828.669861,318
828.78833,323
828.906677,314
829.025085,326
829.143433,327
829.261841,318
829.38031,316
829.498657,319
829.617004,317
829.735413,320
829.85376,320
829.972107,317
830.090515,329
830.208862,315
830.327209,322
830.445557,322
830.563904,306
830.682312,325
830.800659,331
830.919006,323
831.037354,334
831.155701,325
831.274048,316
831.392395,333
831.51062,322
831.629028,306
831.747314,334
831.865662,318
831.984009,328
832.102356,322
832.220642,327
832.338928,310
832.457275,310
832.575623,322
832.693909,312
832.812134,317
832.930481,313
833.048828,311
833.167114,314
833.2854,315
833.403687,315
833.521973,319
833.640259,310
833.758545,314
833.876831,307
833.995056,320
834.113281,311
834.231628,323
834.349915,325
834.468201,313
834.586426,312
834.704651,320
834.822998,313
834.941162,326
835.059448,313
835.177673,318
835.295959,311
835.414246,323
835.53241,315
835.650635,309
835.768921,321
835.887146,313
836.005371,315
836.123596,322
836.241821,316
836.360046,317
836.478271,314
836.596497,313
836.714722,333
836.832886,330
836.95105,312
837.069336,318
837.1875,314
837.305725,327
837.423889,320
837.542053,324
837.660339,317
837.778503,307
837.896667,313
838.014832,320
838.132996,323
838.25116,320
838.369385,330
838.487488,314
838.605713,321
838.723877,309
838.84198,324
838.960205,316
839.078308,322
839.196472,312
839.314636,338
839.4328,313
839.550964,302
839.669067,320
839.787231,319
839.905396,322
840.023499,307
840.141602,332
840.259766,319
840.377869,316
840.495972,337
840.614136,317
840.732239,321
840.850342,330
840.968445,327
841.086548,311
841.204651,323
841.322754,315
841.440918,321
841.55896,307
841.677002,323
841.795166,326
841.913208,314
842.031311,308
842.149353,322
842.267456,323
842.385498,320
842.503601,318
842.621643,325
842.739746,319
842.857788,318
842.97583,305
843.093933,312
843.211975,315
843.330017,331
843.44812,319
843.566101,325
843.684204,321
843.802246,307
843.920227,320
844.038269,317
844.156311,324
844.274292,317
844.392395,316
844.510376,318
844.628357,331
844.74646,320
844.864441,330
844.982422,330
845.100403,319
845.218384,321
845.336426,311
845.454468,317
845.572449,318
845.69043,314
845.808411,320
845.926453,314
846.044373,302
846.162354,312
846.280396,318
846.398315,311
846.516296,321
846.634216,319
846.752197,308
846.870178,321
846.988098,315
847.106079,324
847.22406,317
847.34198,311
847.4599,299
847.577881,310
847.695801,309
847.813782,329
847.931641,301
848.049561,305
848.167603,316
848.285461,303
848.403381,317
848.521362,313
848.639221,318
848.75708,309
848.875,312
848.99292,313
849.110901,326
849.22876,316
849.34668,309
849.464539,332
849.582458,305
849.700317,316
849.818176,317
849.936096,312
850.053955,304
850.171875,315
850.289673,328
850.407593,311
850.525452,331
850.643311,329
850.761169,303
850.878967,325
850.996887,323
851.114746,320
851.232544,326
851.350403,325
851.468262,311
851.58606,321
851.703979,316
851.821777,318
851.939636,320
852.057434,312
852.175232,312
852.293091,320
852.410889,312
852.528687,322
852.646545,316
852.764343,310
852.88208,320
852.999939,311
853.117676,319
853.235535,310
853.353271,322
853.471069,307
853.588928,321
853.706604,332
853.824402,320
853.9422,316
854.059998,324
854.177734,320
854.295532,316
854.413269,308
854.531006,311
854.648804,316
854.766541,322
854.884277,324
855.002014,316
855.119751,318
855.237549,314
855.355225,322
855.473022,312
855.590698,317
855.708435,309
855.826172,325
855.943848,327
856.061646,319
856.179321,318
856.296997,317
856.414795,325
856.53241,324
856.650085,313
856.767822,318
856.885559,313
857.003174,317
857.120911,316
857.238586,318
857.356201,315
857.473938,319
857.591614,327
857.709351,325
857.826965,312
857.944641,307
858.062317,309
858.179993,330
858.297668,304
858.415283,312
858.532959,319
858.650574,301
858.768188,331
858.885803,314
859.003479,311
859.121094,315
859.23877,319
859.356384,310
859.473999,315
859.591675,302
859.709229,310
859.826843,312
859.944458,314
860.062012,309
860.179626,308
860.297302,316
860.414856,304
860.532471,322
860.650024,310
860.767639,310
860.885193,309
861.002808,315
861.120361,310
861.237976,317
861.35553,332
861.473022,315
861.590698,317
861.708191,324
861.825745,321
861.943298,303
862.060852,314
862.178406,309
862.295959,324
862.413513,321
862.531006,312
862.64856,317
862.766113,311
862.883667,320
863.00116,336
863.118713,328
863.236206,320
863.353699,313
863.471252,322
863.588745,333
863.706177,328
863.82373,314
863.941162,319
864.058716,322
864.176208,323
864.29364,326
864.411194,318
864.528687,325
864.646118,309
864.763611,323
864.881042,321
864.998535,315
865.116028,316
865.233459,309
865.350891,311
865.468384,318
865.585754,325
865.703308,318
865.820679,315
865.938171,321
866.055542,313
866.173035,309
866.290466,312
866.407837,311
866.52533,318
866.6427,319
866.760071,323
866.877563,309
866.994934,317
867.112305,302
867.229736,317
867.347107,320
867.464539,315
867.58197,323
867.699341,309
867.81665,320
867.934082,314
868.051453,322
868.168823,326
868.286194,322
868.403564,312
868.520935,315
868.638306,316
868.755676,310
868.872986,316
868.990295,321
869.107727,311
869.225037,308
869.342346,325
869.459717,320
869.577026,316
869.694336,313
869.811707,311
869.929016,326
870.046326,310
870.163635,324
870.280945,326
870.398254,324
870.515564,317
870.632812,324
870.750183,321
870.867432,320
870.984741,318
871.102051,332
871.219299,312
871.336609,315
871.453918,313
871.571106,314
871.688416,324
871.805664,316
871.922852,310
872.040222,322
872.157471,320
872.274719,321
872.391968,317
872.509155,313
872.626465,320
872.743652,326
872.860962,315
872.978149,317
873.095337,305
873.212646,314
873.329834,307
873.44696,314
873.564209,326
873.681396,299
873.798645,311
873.915894,318
874.03302,320
874.150208,310
874.267456,316
874.384583,317
874.501831,318
874.618958,319
874.736145,316
874.853333,317
874.970459,316
875.087646,325
875.204834,299
875.32196,325
875.439148,318
875.556274,319
875.673401,326
875.790527,320
875.907715,315
876.024841,313
876.141968,312
876.259094,313
876.376282,315
876.493347,312
876.610474,316
876.7276,316
876.844727,309
876.961853,332
877.078918,326
877.195984,301
877.313171,314
877.430237,312
877.547302,323
877.664368,321
877.781433,314
877.898499,324
878.015625,316
878.13269,321
878.249695,317
878.366821,315
878.483887,317
878.600952,322
878.717957,318
878.834961,314
878.952087,334
879.069092,316
879.186157,318
879.303162,328
879.420227,312
879.537231,316
879.654236,320
879.77124,322
879.888306,316
880.005249,319
880.122314,314
880.239319,314
880.356323,313
880.473328,318
880.590271,315
880.707275,316
880.824341,329
880.941284,312
881.058228,317
881.175232,322
881.292236,329
881.40918,321
881.526123,313
881.643066,306
881.760071,321
881.877014,323
881.993958,311
882.11084,321
882.227783,328
882.344727,316
882.46167,306
882.578613,316
882.695618,312
882.812439,325
882.929382,317
883.046326,310
883.163208,323
883.280151,309
883.397034,332
883.513916,318
883.630798,315
883.747742,322
883.864563,319
883.981506,323
884.098389,311
884.21521,329
884.332153,324
884.448975,324
884.565796,313
884.682678,323
884.7995,315
884.916443,327
885.033264,324
885.150085,312
885.266968,324
885.383789,315
885.500671,316
885.617493,321
885.734314,320
885.851196,336
885.967896,316
886.084717,309
886.201599,328
886.318359,317
886.435181,322
886.552002,321
886.668762,328
886.785645,315
886.902344,316
887.019165,335
887.135925,311
887.252747,322
887.369446,319
887.486267,320
887.603027,323
887.719788,309
887.836548,307
887.953247,319
888.070068,327
888.186829,311
888.303528,315
888.420288,334
888.536987,311
888.653687,323
888.770447,316
888.887146,314
889.003967,328
889.120667,328
889.237305,319
889.354065,318
889.470703,316
889.587463,322
889.704163,313
889.820862,318
889.937561,309
890.054199,318
890.170837,315
890.287598,320
890.404236,311
890.520874,306
890.637634,319
890.754211,327
890.87085,337
890.987549,330
891.104187,311
891.220886,317
891.337463,306
891.454102,319
891.57074,312
891.687378,311
891.804077,314
891.920654,317
892.037231,320
892.15387,311
892.270447,317
892.387085,331
892.503723,304
892.6203,315
892.736877,333
892.853516,326
892.970032,301
893.08667,308
893.203186,315
893.319763,325
893.43634,310
893.552917,328
893.669556,317
893.786011,319
893.902588,324
894.019165,315
894.135681,307
894.252197,323
894.368835,313
894.485291,309
894.601868,314
894.718384,323
894.8349,319
894.951355,316
895.067932,318
895.184448,319
895.300964,327
895.417419,319
895.533936,314
895.650452,327
895.766907,324
895.883423,319
895.999878,318
896.116333,324
896.232849,315
896.349304,311
896.465759,321
896.582214,324
896.698669,313
896.815125,324
896.931641,314
897.048035,330
897.164551,329
897.280884,306
897.397339,310
897.513794,328
897.630249,330
897.746582,319
897.863098,324
897.979431,319
898.095886,322
898.212341,321
898.328674,327
898.445129,322
898.561462,319
898.677795,318
898.794312,322
898.910645,331
899.026978,318
899.143433,334
899.259766,314
899.37616,317
899.492493,295
899.608765,320
899.725159,323
899.841553,315
899.957947,309
900.07428,321
900.190552,329
900.306946,329
900.423157,315
900.53949,327
900.655884,322
900.772156,313
900.888489,306
901.004822,316
901.121033,325
901.237366,322
901.353699,316
901.46991,319
901.586304,324
901.702515,325
901.818787,322
901.93512,329
902.051331,307
902.167603,332
902.283875,320
902.400085,326
902.516418,308
902.632629,325
902.74884,319
902.865112,321
902.981384,318
903.097595,326
903.213867,323
903.330017,315
903.446289,319
903.5625,329
903.67865,324
903.794922,312
903.911072,319
904.027344,326
904.143494,319
904.259705,308
904.375916,316
904.492065,334
904.608215,327
904.724426,322
904.840576,319
904.956726,329
905.072876,312
905.189087,316
905.305176,311
905.421387,324
905.537537,325
905.653687,314
905.769775,305
905.885925,314
906.002014,322
906.118164,335
906.234314,327
906.350403,324
906.466492,330
906.582642,320
906.69873,326
906.814758,316
906.930908,321
907.046936,328
907.163086,317
907.279175,322
907.395264,324
907.511353,316
907.62738,313
907.743408,319
907.859497,324
907.975525,323
908.091553,325
908.207703,326
908.32373,308
908.439758,315
908.555786,325
908.671814,312
908.787842,323
908.90387,330
909.019775,324
909.135864,323
909.251892,312
909.367859,304
909.483826,320
909.599854,321
909.715881,328
909.831848,312
909.947815,319
910.063782,328
910.179749,320
910.295776,333
910.411743,320
910.527649,333
910.643616,312
910.759583,312
910.875488,323
910.991455,324
911.107361,320
911.223267,323
911.339294,324
911.4552,315
911.571106,306
911.687073,329
911.802979,330
911.918823,318
912.034729,326
912.150635,324
912.266602,312
912.382446,324
912.498352,318
912.614197,323
912.730103,327
912.846008,317
792.44574,320
792.56488,350
792.68396,400
792.80304,374
792.92218,337
793.041199,314
793.160339,325
793.279419,318
793.398499,336
793.517578,311
793.636658,338
793.755737,332
793.874817,340
793.993896,336
794.112976,344
794.232056,333
794.351074,335
794.470215,315
794.589233,328
794.708313,332
794.827393,321
794.946411,325
795.065552,329
795.18457,338
795.303589,341
795.422668,329
795.541687,333
795.660767,328
795.779846,332
795.898865,333
796.017883,330
796.136963,341
796.255981,342
796.375061,339
796.49408,335
796.613037,323
796.732117,343
796.851135,332
796.970154,336
797.089233,335
797.208191,328
797.327271,332
797.446228,332
797.565186,331
797.684265,341
797.803223,325
797.922241,332
798.04126,334
798.160278,328
798.279297,321
798.398315,333
798.517273,338
798.636292,336
798.75531,317
798.874268,330
798.993286,315
799.112244,336
799.231323,324
799.350281,332
799.469238,333
799.588257,318
799.707153,335
799.826111,331
799.945129,331
800.064087,337
800.183044,332
800.302063,336
800.421021,338
800.539978,314
800.658936,335
800.777893,329
800.896912,322
801.015747,339
801.134705,336
801.253723,323
801.37262,328
801.491638,327
801.610535,322
801.729492,336
801.84845,332
801.967407,335
802.086243,332
802.205261,351
802.324158,337
802.443115,338
802.562073,332
802.680969,332
802.799927,315
802.918762,336
803.037659,318
803.156677,327
803.275574,332
803.39447,339
803.513428,323
803.632263,318
803.751221,324
803.870117,326
803.989014,328
804.107971,307
804.226746,341
804.345642,333
804.4646,324
804.583496,343
804.702393,319
804.821228,324
804.940125,335
805.059021,335
805.177917,342
805.296814,331
805.415649,329
805.534546,340
805.653442,325
805.772278,331
805.891113,326
806.01001,324
806.128906,332
806.247742,334
806.366577,338
806.485413,333
806.604309,328
806.723145,337
806.84198,311
806.960876,343
807.079712,309
807.198486,329
807.317383,341
807.436218,345
807.554993,331
807.673889,325
807.792725,331
807.91156,337
808.030396,329
808.14917,341
808.268005,319
808.386841,330
808.505676,331
808.624451,329
808.743286,331
808.862122,317
808.980896,341
809.099731,314
809.218506,327
809.337341,350
809.456116,330
809.57489,343
809.693726,330
809.8125,334
809.931274,349
810.050049,331
810.168884,333
810.287659,326
810.406372,324
810.525269,335
810.643982,327
810.762756,347
810.881531,335
811.000305,339
811.11908,330
811.237854,347
811.356567,328
811.475403,328
811.594116,337
811.71283,332
811.831604,324
811.950378,348
812.069153,351
812.187927,337
812.30658,340
812.425415,326
812.544128,321
812.662781,335
812.781616,321
812.900269,337
813.019043,335
813.137756,340
813.256531,341
813.375244,333
813.493896,330
813.612671,344
813.731384,327
813.850037,332
813.96875,349
814.087524,330
814.206238,325
814.324951,342
814.443604,336
814.562256,338
814.68103,327
814.799683,334
814.918335,336
815.037109,342
815.155762,324
815.274475,332
815.393188,321
815.511841,344
815.630554,326
815.749146,332
815.867859,336
815.986572,332
816.105164,318
816.223877,335
816.342529,321
816.461182,329
816.579895,319
816.698486,325
816.817139,336
816.935791,341
817.054504,330
817.173096,325
817.291748,325
817.4104,333
817.529053,330
817.647644,335
817.766235,318
817.884949,323
818.00354,327
818.122192,325
818.240845,326
818.359436,328
818.478088,328
818.59668,346
818.715271,328
818.833923,324
818.952515,331
819.071106,330
819.189758,306
819.30835,332
819.426941,321
819.545532,331
819.664124,330
819.782715,329
819.901306,316
820.019897,342
820.138489,312
820.25708,340
820.375671,313
820.494202,325
820.612732,308
820.731384,336
820.849915,320
820.968506,325
821.087097,318
821.205627,324
821.324158,306
821.442749,329
821.561279,324
821.679871,333
821.798401,326
821.916931,313
822.035461,325
822.154053,319
822.272583,318
822.391174,315
822.509583,335
822.628174,325
822.746704,319
822.865234,331
822.983765,317
823.102295,324
823.220825,321
823.339294,309
823.457825,324
823.576355,315
823.694824,320
823.813354,312
823.931885,300
824.050354,323
824.168884,328
824.287354,324
824.405823,320
824.524353,310
824.642822,329
824.761353,322
824.879822,312
824.998291,318
825.116699,325
825.235291,330
825.353699,309
825.472168,329
825.590637,313
825.709106,322
825.827576,304
825.946045,325
826.064453,325
826.182983,318
826.301392,320
826.4198,322
826.53833,318
826.656738,309
826.775208,321
826.893677,321
827.012024,318
827.130493,325
827.248962,309
827.36731,310
827.485779,297
827.604248,325
827.722595,317
827.841064,312
827.959412,311
828.077942,317
828.196289,321
828.314636,317
828.433105,312
828.551514,313
828.669861,324
828.78833,326
828.906677,320
829.025085,308
829.143433,324
829.261841,321
829.38031,319
829.498657,336
829.617004,306
829.735413,327
829.85376,310
829.972107,318
830.090515,304
830.208862,312
830.327209,324
830.445557,307
830.563904,306
830.682312,308
830.800659,292
830.919006,318
831.037354,317
831.155701,325
831.274048,310
831.392395,324
831.51062,305
831.629028,311
831.747314,323
831.865662,319
831.984009,309
832.102356,337
832.220642,311
832.338928,326
832.457275,333
832.575623,327
832.693909,318
832.812134,320
832.930481,313
833.048828,326
833.167114,305
833.2854,315
833.403687,317
833.521973,325
833.640259,314
833.758545,315
833.876831,321
833.995056,318
834.113281,315
834.231628,318
834.349915,313
834.468201,315
834.586426,316
834.704651,327
834.822998,328
834.941162,321
835.059448,305
835.177673,319
835.295959,319
835.414246,316
835.53241,312
835.650635,320
835.768921,309
835.887146,336
836.005371,305
836.123596,332
836.241821,324
836.360046,328
836.478271,321
836.596497,325
836.714722,311
836.832886,311
836.95105,334
837.069336,328
837.1875,322
837.305725,317
837.423889,320
837.542053,317
837.660339,318
837.778503,328
837.896667,328
838.014832,322
838.132996,301
838.25116,321
838.369385,322
838.487488,313
838.605713,314
838.723877,331
838.84198,322
838.960205,320
839.078308,317
839.196472,313
839.314636,301
839.4328,320
839.550964,339
839.669067,316
839.787231,321
839.905396,319
840.023499,309
840.141602,326
840.259766,302
840.377869,326
840.495972,317
840.614136,327
840.732239,321
840.850342,314
840.968445,324
841.086548,334
841.204651,324
841.322754,318
841.440918,318
841.55896,321
841.677002,315
841.795166,326
841.913208,311
842.031311,316
842.149353,323
842.267456,314
842.385498,307
842.503601,320
842.621643,313
842.739746,318
842.857788,314
842.97583,311
843.093933,315
843.211975,321
843.330017,309
843.44812,309
843.566101,329
843.684204,313
843.802246,315
843.920227,320
844.038269,316
844.156311,322
844.274292,303
844.392395,312
844.510376,328
844.628357,316
844.74646,314
844.864441,314
844.982422,319
845.100403,331
845.218384,300
845.336426,316
845.454468,326
845.572449,317
845.69043,311
845.808411,312
845.926453,318
846.044373,315
846.162354,328
846.280396,321
846.398315,301
846.516296,325
846.634216,308
846.752197,315
846.870178,325
846.988098,314
847.106079,317
847.22406,316
847.34198,311
847.4599,315
847.577881,319
847.695801,317
847.813782,323
847.931641,319
848.049561,316
848.167603,324
848.285461,314
848.403381,321
848.521362,324
848.639221,322
848.75708,335
848.875,321
848.99292,315
849.110901,307
849.22876,316
849.34668,323
849.464539,324
849.582458,325
849.700317,316
849.818176,332
849.936096,319
850.053955,336
850.171875,321
850.289673,323
850.407593,321
850.525452,328
850.643311,309
850.761169,319
850.878967,327
850.996887,313
851.114746,307
851.232544,319
851.350403,308
851.468262,333
851.58606,322
851.703979,310
851.821777,309
851.939636,324
852.057434,317
852.175232,322
852.293091,319
852.410889,328
852.528687,318
852.646545,329
852.764343,321
852.88208,333
852.999939,314
853.117676,321
853.235535,312
853.353271,335
853.471069,314
853.588928,314
853.706604,328
853.824402,325
853.9422,312
854.059998,305
854.177734,320
854.295532,319
854.413269,311
854.531006,316
854.648804,318
854.766541,325
854.884277,323
855.002014,322
855.119751,303
855.237549,309
855.355225,322
855.473022,327
855.590698,305
855.708435,318
855.826172,316
855.943848,327
856.061646,314
856.179321,324
856.296997,325
856.414795,314
856.53241,308
856.650085,325
856.767822,298
856.885559,328
857.003174,319
857.120911,316
857.238586,321
857.356201,322
857.473938,315
857.591614,319
857.709351,300
857.826965,339
857.944641,321
858.062317,317
858.179993,310
858.297668,331
858.415283,312
858.532959,315
858.650574,322
858.768188,323
858.885803,331
859.003479,325
859.121094,314
859.23877,306
859.356384,317
859.473999,310
859.591675,314
859.709229,316
859.826843,306
859.944458,319
860.062012,327
860.179626,324
860.297302,303
860.414856,319
860.532471,309
860.650024,322
860.767639,327
860.885193,327
861.002808,308
861.120361,313
861.237976,326
861.35553,316
861.473022,309
861.590698,334
861.708191,311
861.825745,335
861.943298,319
862.060852,322
862.178406,310
862.295959,326
862.413513,316
862.531006,324
862.64856,306
862.766113,328
862.883667,325
863.00116,318
863.118713,312
863.236206,316
863.353699,323
863.471252,320
863.588745,326
863.706177,327
863.82373,318
863.941162,314
864.058716,306
864.176208,323
864.29364,314
864.411194,319
864.528687,332
864.646118,335
864.763611,307
864.881042,326
864.998535,310
865.116028,303
865.233459,316
865.350891,320
865.468384,323
865.585754,320
865.703308,322
865.820679,326
865.938171,328
866.055542,328
866.173035,317
866.290466,316
866.407837,302
866.52533,317
866.6427,325
866.760071,317
866.877563,326
866.994934,329
867.112305,316
867.229736,315
867.347107,313
867.464539,309
867.58197,315
867.699341,322
867.81665,318
867.934082,325
868.051453,315
868.168823,321
868.286194,318
868.403564,303
868.520935,297
868.638306,315
868.755676,313
868.872986,312
868.990295,304
869.107727,322
869.225037,310
869.342346,319
869.459717,314
869.577026,319
869.694336,317
869.811707,327
869.929016,313
870.046326,323
870.163635,309
870.280945,327
870.398254,317
870.515564,327
870.632812,313
870.750183,334
870.867432,312
870.984741,317
871.102051,308
871.219299,328
871.336609,316
871.453918,313
871.571106,313
871.688416,316
871.805664,319
871.922852,319
872.040222,312
872.157471,327
872.274719,309
872.391968,312
872.509155,324
872.626465,315
872.743652,317
872.860962,317
872.978149,318
873.095337,327
873.212646,313
873.329834,321
873.44696,311
873.564209,325
873.681396,314
873.798645,327
873.915894,300
874.03302,312
874.150208,305
874.267456,312
874.384583,312
874.501831,311
874.618958,323
874.736145,316
874.853333,320
874.970459,319
875.087646,317
875.204834,309
875.32196,318
875.439148,320
875.556274,325
875.673401,318
875.790527,327
875.907715,309
876.024841,319
876.141968,322
876.259094,323
876.376282,320
876.493347,316
876.610474,324
876.7276,311
876.844727,308
876.961853,315
877.078918,320
877.195984,313
877.313171,319
877.430237,310
877.547302,322
877.664368,310
877.781433,314
877.898499,317
878.015625,311
878.13269,329
878.249695,315
878.366821,316
878.483887,309
878.600952,329
878.717957,318
878.834961,318
878.952087,317
879.069092,307
879.186157,307
879.303162,316
879.420227,321
879.537231,318
879.654236,320
879.77124,315
879.888306,316
880.005249,320
880.122314,328
880.239319,306
880.356323,329
880.473328,298
880.590271,329
880.707275,311
880.824341,305
880.941284,327
881.058228,318
881.175232,321
881.292236,326
881.40918,314
881.526123,333
881.643066,316
881.760071,326
881.877014,313
881.993958,311
882.11084,313
882.227783,325
882.344727,306
882.46167,313
882.578613,314
882.695618,317
882.812439,309
882.929382,313
883.046326,303
883.163208,306
883.280151,319
883.397034,334
883.513916,304
883.630798,324
883.747742,319
883.864563,329
883.981506,326
884.098389,324
884.21521,315
884.332153,309
884.448975,310
884.565796,327
884.682678,320
884.7995,311
884.916443,330
885.033264,326
885.150085,314
885.266968,321
885.383789,313
885.500671,300
885.617493,304
885.734314,329
885.851196,327
885.967896,319
886.084717,308
886.201599,317
886.318359,306
886.435181,320
886.552002,315
886.668762,314
886.785645,318
886.902344,304
887.019165,314
887.135925,319
887.252747,315
887.369446,326
887.486267,316
887.603027,320
887.719788,316
887.836548,308
887.953247,311
888.070068,332
888.186829,324
888.303528,324
888.420288,314
888.536987,330
888.653687,312
888.770447,319
888.887146,321
889.003967,320
889.120667,322
889.237305,324
889.354065,338
889.470703,344
889.587463,300
889.704163,311
889.820862,317
889.937561,315
890.054199,306
890.170837,314
890.287598,318
890.404236,310
890.520874,340
890.637634,315
890.754211,318
890.87085,325
890.987549,308
891.104187,327
891.220886,301
891.337463,299
891.454102,328
891.57074,316
891.687378,307
891.804077,317
891.920654,324
892.037231,318
892.15387,314
892.270447,321
892.387085,318
892.503723,314
892.6203,306
892.736877,320
892.853516,314
892.970032,315
893.08667,314
893.203186,325
893.319763,322
893.43634,330
893.552917,314
893.669556,326
893.786011,318
893.902588,315
894.019165,307
894.135681,309
894.252197,327
894.368835,321
894.485291,306
894.601868,323
894.718384,316
894.8349,312
894.951355,318
895.067932,327
895.184448,315
895.300964,325
895.417419,305
895.533936,318
895.650452,309
895.766907,312
895.883423,311
895.999878,310
896.116333,316
896.232849,333
896.349304,311
896.465759,326
896.582214,316
896.698669,319
896.815125,307
896.931641,335
897.048035,326
897.164551,318
897.280884,317
897.397339,329
897.513794,319
897.630249,327
897.746582,314
897.863098,328
897.979431,328
898.095886,320
898.212341,325
898.328674,319
898.445129,320
898.561462,313
898.677795,320
898.794312,322
898.910645,319
899.026978,329
899.143433,319
899.259766,317
899.37616,316
899.492493,320
899.608765,314
899.725159,316
899.841553,327
899.957947,316
900.07428,322
900.190552,317
900.306946,320
900.423157,331
900.53949,313
900.655884,321
900.772156,317
900.888489,327
901.004822,322
901.121033,322
901.237366,322
901.353699,328
901.46991,315
901.586304,315
901.702515,313
901.818787,331
901.93512,321
902.051331,314
902.167603,320
902.283875,320
902.400085,316
902.516418,321
902.632629,314
902.74884,320
902.865112,315
902.981384,307
903.097595,319
903.213867,314
903.330017,308
903.446289,318
903.5625,315
903.67865,327
903.794922,318
903.911072,318
904.027344,322
904.143494,316
904.259705,318
904.375916,312
904.492065,309
904.608215,317
904.724426,315
904.840576,315
904.956726,319
905.072876,320
905.189087,319
905.305176,324
905.421387,309
905.537537,324
905.653687,317
905.769775,319
905.885925,318
906.002014,318
906.118164,309
906.234314,316
906.350403,317
906.466492,325
906.582642,317
906.69873,323
906.814758,322
906.930908,336
907.046936,322
907.163086,318
907.279175,307
907.395264,325
907.511353,314
907.62738,326
907.743408,319
907.859497,330
907.975525,318
908.091553,327
908.207703,317
908.32373,333
908.439758,312
908.555786,320
908.671814,317
908.787842,316
908.90387,313
909.019775,305
909.135864,328
909.251892,326
909.367859,302
909.483826,313
909.599854,317
909.715881,312
909.831848,327
909.947815,322
910.063782,329
910.179749,325
910.295776,317
910.411743,322
910.527649,307
910.643616,325
910.759583,320
910.875488,313
910.991455,316
911.107361,323
911.223267,326
911.339294,313
911.4552,326
911.571106,320
911.687073,332
911.802979,325
911.918823,319
912.034729,333
912.150635,314
912.266602,320
912.382446,315
912.498352,327
912.614197,328
912.730103,321
912.846008,311
