792.44574,311
792.56488,354
792.68396,410
792.80304,380
792.92218,326
793.041199,305
793.160339,339
793.279419,339
793.398499,338
793.517578,316
793.636658,305
793.755737,332
793.874817,350
793.993896,356
794.112976,347
794.232056,328
794.351074,329
794.470215,324
794.589233,323
794.708313,340
794.827393,313
794.946411,341
795.065552,355
795.18457,344
795.303589,325
795.422668,345
795.541687,332
795.660767,332
795.779846,324
795.898865,319
796.017883,344
796.136963,329
796.255981,329
796.375061,326
796.49408,320
796.613037,339
796.732117,315
796.851135,327
796.970154,335
797.089233,327
797.208191,330
797.327271,342
797.446228,337
797.565186,330
797.684265,339
797.803223,326
797.922241,333
798.04126,334
798.160278,339
798.279297,332
798.398315,329
798.517273,322
798.636292,323
798.75531,337
798.874268,325
798.993286,329
799.112244,329
799.231323,329
799.350281,332
799.469238,333
799.588257,325
799.707153,334
799.826111,324
799.945129,329
800.064087,344
800.183044,332
800.302063,337
800.421021,332
800.539978,329
800.658936,337
800.777893,324
800.896912,324
801.015747,323
801.134705,319
801.253723,342
801.37262,335
801.491638,317
801.610535,321
801.729492,332
801.84845,326
801.967407,317
802.086243,329
802.205261,343
802.324158,347
802.443115,333
802.562073,315
802.680969,335
802.799927,336
802.918762,335
803.037659,329
803.156677,331
803.275574,324
803.39447,330
803.513428,330
803.632263,335
803.751221,335
803.870117,330
803.989014,330
804.107971,336
804.226746,329
804.345642,326
804.4646,341
804.583496,324
804.702393,326
804.821228,334
804.940125,323
805.059021,322
805.177917,333
805.296814,340
805.415649,334
805.534546,316
805.653442,341
805.772278,333
805.891113,326
806.01001,328
806.128906,335
806.247742,331
806.366577,323
806.485413,339
806.604309,325
806.723145,334
806.84198,325
806.960876,319
807.079712,346
807.198486,340
807.317383,338
807.436218,318
807.554993,337
807.673889,336
807.792725,342
807.91156,318
808.030396,320
808.14917,338
808.268005,341
808.386841,327
808.505676,328
808.624451,341
808.743286,325
808.862122,342
808.980896,340
809.099731,319
809.218506,333
809.337341,331
809.456116,325
809.57489,338
809.693726,335
809.8125,335
809.931274,330
810.050049,337
810.168884,337
810.287659,335
810.406372,329
810.525269,318
810.643982,348
810.762756,346
810.881531,335
811.000305,323
811.11908,324
811.237854,336
811.356567,334
811.475403,337
811.594116,337
811.71283,335
811.831604,332
811.950378,323
812.069153,336
812.187927,325
812.30658,343
812.425415,338
812.544128,329
812.662781,334
812.781616,330
812.900269,329
813.019043,331
813.137756,344
813.256531,334
813.375244,335
813.493896,336
813.612671,326
813.731384,347
813.850037,317
813.96875,344
814.087524,335
814.206238,351
814.324951,334
814.443604,331
814.562256,328
814.68103,333
814.799683,333
814.918335,339
815.037109,326
815.155762,335
815.274475,328
815.393188,336
815.511841,324
815.630554,334
815.749146,332
815.867859,335
815.986572,328
816.105164,324
816.223877,327
816.342529,343
816.461182,329
816.579895,332
816.698486,341
816.817139,336
816.935791,321
817.054504,339
817.173096,327
817.291748,337
817.4104,318
817.529053,328
817.647644,335
817.766235,335
817.884949,336
818.00354,327
818.122192,330
818.240845,319
818.359436,325
818.478088,307
818.59668,324
818.715271,330
818.833923,322
818.952515,330
819.071106,327
819.189758,325
819.30835,312
819.426941,332
819.545532,325
819.664124,315
819.782715,335
819.901306,321
820.019897,321
820.138489,327
820.25708,316
820.375671,319
820.494202,313
820.612732,315
820.731384,325
820.849915,331
820.968506,322
821.087097,317
821.205627,339
821.324158,320
821.442749,317
821.561279,322
821.679871,315
821.798401,311
821.916931,321
822.035461,318
822.154053,310
822.272583,321
822.391174,315
822.509583,318
822.628174,317
822.746704,311
822.865234,308
822.983765,327
823.102295,309
823.220825,334
823.339294,310
823.457825,318
823.576355,314
823.694824,320
823.813354,332
823.931885,313
824.050354,323
824.168884,320
824.287354,330
824.405823,316
824.524353,323
824.642822,314
824.761353,328
824.879822,314
824.998291,312
825.116699,324
825.235291,314
825.353699,313
825.472168,307
825.590637,316
825.709106,312
825.827576,323
825.946045,312
826.064453,316
826.182983,320
826.301392,318
826.4198,325
826.53833,324
826.656738,313
826.775208,332
826.893677,308
827.012024,322
827.130493,324
827.248962,310
827.36731,322
827.485779,329
827.604248,329
827.722595,318
827.841064,323
827.959412,328
828.077942,310
828.196289,318
828.314636,328
828.433105,327
828.551514,314
828.669861,311
828.78833,318
828.906677,317
829.025085,332
829.143433,322
829.261841,318
829.38031,309
829.498657,315
829.617004,306
829.735413,312
829.85376,307
829.972107,310
830.090515,308
830.208862,323
830.327209,317
830.445557,314
830.563904,315
830.682312,326
830.800659,326
830.919006,332
831.037354,312
831.155701,301
831.274048,327
831.392395,318
831.51062,321
831.629028,324
831.747314,320
831.865662,308
831.984009,321
832.102356,309
832.220642,327
832.338928,322
832.457275,326
832.575623,313
832.693909,320
832.812134,319
832.930481,320
833.048828,318
833.167114,323
833.2854,314
833.403687,315
833.521973,328
833.640259,315
833.758545,306
833.876831,320
833.995056,319
834.113281,328
834.231628,316
834.349915,326
834.468201,325
834.586426,309
834.704651,326
834.822998,313
834.941162,325
835.059448,312
835.177673,314
835.295959,325
835.414246,307
835.53241,322
835.650635,315
835.768921,321
835.887146,312
836.005371,305
836.123596,316
836.241821,321
836.360046,299
836.478271,321
836.596497,314
836.714722,313
836.832886,313
836.95105,312
837.069336,317
837.1875,325
837.305725,315
837.423889,308
837.542053,323
837.660339,303
837.778503,315
837.896667,319
838.014832,311
838.132996,319
838.25116,324
838.369385,317
838.487488,305
838.605713,319
838.723877,326
838.84198,318
838.960205,311
839.078308,325
839.196472,315
839.314636,321
839.4328,317
839.550964,318
839.669067,315
839.787231,323
839.905396,323
840.023499,327
840.141602,311
840.259766,332
840.377869,319
840.495972,318
840.614136,314
840.732239,319
840.850342,311
840.968445,317
841.086548,325
841.204651,326
841.322754,323
841.440918,320
841.55896,318
841.677002,321
841.795166,312
841.913208,321
842.031311,316
842.149353,320
842.267456,304
842.385498,323
842.503601,322
842.621643,312
842.739746,316
842.857788,308
842.97583,320
843.093933,312
843.211975,328
843.330017,317
843.44812,300
843.566101,317
843.684204,316
843.802246,329
843.920227,314
844.038269,323
844.156311,312
844.274292,317
844.392395,319
844.510376,330
844.628357,302
844.74646,327
844.864441,309
844.982422,328
845.100403,297
845.218384,325
845.336426,318
845.454468,323
845.572449,312
845.69043,316
845.808411,314
845.926453,309
846.044373,318
846.162354,332
846.280396,315
846.398315,323
846.516296,332
846.634216,301
846.752197,313
846.870178,316
846.988098,318
847.106079,313
847.22406,319
847.34198,310
847.4599,305
847.577881,324
847.695801,299
847.813782,314
847.931641,324
848.049561,314
848.167603,320
848.285461,315
848.403381,320
848.521362,316
848.639221,309
848.75708,322
848.875,328
848.99292,305
849.110901,299
849.22876,322
849.34668,322
849.464539,315
849.582458,310
849.700317,331
849.818176,308
849.936096,329
850.053955,311
850.171875,316
850.289673,317
850.407593,322
850.525452,312
850.643311,322
850.761169,302
850.878967,324
850.996887,306
851.114746,313
851.232544,306
851.350403,327
851.468262,316
851.58606,319
851.703979,314
851.821777,307
851.939636,324
852.057434,324
852.175232,310
852.293091,318
852.410889,311
852.528687,300
852.646545,300
852.764343,314
852.88208,304
852.999939,327
853.117676,306
853.235535,320
853.353271,307
853.471069,318
853.588928,320
853.706604,313
853.824402,315
853.9422,307
854.059998,325
854.177734,314
854.295532,310
854.413269,320
854.531006,316
854.648804,306
854.766541,318
854.884277,310
855.002014,330
855.119751,332
855.237549,332
855.355225,324
855.473022,298
855.590698,332
855.708435,314
855.826172,319
855.943848,332
856.061646,317
856.179321,315
856.296997,322
856.414795,314
856.53241,329
856.650085,308
856.767822,313
856.885559,315
857.003174,308
857.120911,320
857.238586,337
857.356201,315
857.473938,316
857.591614,304
857.709351,330
857.826965,317
857.944641,312
858.062317,312
858.179993,322
858.297668,306
858.415283,316
858.532959,325
858.650574,320
858.768188,312
858.885803,316
859.003479,313
859.121094,321
859.23877,316
859.356384,314
859.473999,321
859.591675,315
859.709229,311
859.826843,314
859.944458,315
860.062012,307
860.179626,323
860.297302,332
860.414856,315
860.532471,325
860.650024,320
860.767639,299
860.885193,318
861.002808,314
861.120361,304
861.237976,322
861.35553,318
861.473022,324
861.590698,315
861.708191,317
861.825745,316
861.943298,320
862.060852,316
862.178406,312
862.295959,308
862.413513,324
862.531006,319
862.64856,317
862.766113,313
862.883667,316
863.00116,315
863.118713,329
863.236206,309
863.353699,319
863.471252,309
863.588745,315
863.706177,309
863.82373,317
863.941162,320
864.058716,329
864.176208,315
864.29364,317
864.411194,320
864.528687,311
864.646118,311
864.763611,313
864.881042,318
864.998535,320
865.116028,319
865.233459,318
865.350891,310
865.468384,313
865.585754,315
865.703308,326
865.820679,311
865.938171,328
866.055542,317
866.173035,316
866.290466,312
866.407837,308
866.52533,330
866.6427,313
866.760071,325
866.877563,314
866.994934,313
867.112305,322
867.229736,308
867.347107,333
867.464539,319
867.58197,328
867.699341,314
867.81665,310
867.934082,309
868.051453,311
868.168823,310
868.286194,325
868.403564,312
868.520935,315
868.638306,318
868.755676,304
868.872986,325
868.990295,317
869.107727,326
869.225037,311
869.342346,308
869.459717,317
869.577026,325
869.694336,313
869.811707,323
869.929016,320
870.046326,319
870.163635,319
870.280945,317
870.398254,320
870.515564,311
870.632812,327
870.750183,323
870.867432,326
870.984741,317
871.102051,318
871.219299,323
871.336609,306
871.453918,313
871.571106,313
871.688416,300
871.805664,309
871.922852,310
872.040222,308
872.157471,315
872.274719,318
872.391968,306
872.509155,328
872.626465,315
872.743652,312
872.860962,316
872.978149,310
873.095337,317
873.212646,336
873.329834,307
873.44696,306
873.564209,322
873.681396,316
873.798645,311
873.915894,316
874.03302,311
874.150208,313
874.267456,322
874.384583,319
874.501831,292
874.618958,307
874.736145,320
874.853333,325
874.970459,320
875.087646,319
875.204834,311
875.32196,326
875.439148,317
875.556274,315
875.673401,318
875.790527,318
875.907715,324
876.024841,315
876.141968,319
876.259094,317
876.376282,310
876.493347,319
876.610474,320
876.7276,316
876.844727,327
876.961853,319
877.078918,320
877.195984,314
877.313171,322
877.430237,325
877.547302,319
877.664368,320
877.781433,310
877.898499,328
878.015625,319
878.13269,331
878.249695,326
878.366821,318
878.483887,313
878.600952,326
878.717957,310
878.834961,318
878.952087,316
879.069092,311
879.186157,316
879.303162,324
879.420227,321
879.537231,327
879.654236,308
879.77124,317
879.888306,314
880.005249,321
880.122314,318
880.239319,321
880.356323,321
880.473328,323
880.590271,326
880.707275,319
880.824341,311
880.941284,333
881.058228,317
881.175232,323
881.292236,297
881.40918,320
881.526123,312
881.643066,311
881.760071,309
881.877014,326
881.993958,330
882.11084,308
882.227783,309
882.344727,312
882.46167,317
882.578613,326
882.695618,312
882.812439,320
882.929382,326
883.046326,305
883.163208,322
883.280151,332
883.397034,298
883.513916,316
883.630798,314
883.747742,320
883.864563,323
883.981506,309
884.098389,318
884.21521,321
884.332153,327
884.448975,315
884.565796,310
884.682678,334
884.7995,309
884.916443,317
885.033264,319
885.150085,318
885.266968,309
885.383789,318
885.500671,311
885.617493,324
885.734314,317
885.851196,297
885.967896,312
886.084717,326
886.201599,327
886.318359,319
886.435181,310
886.552002,315
886.668762,326
886.785645,328
886.902344,325
887.019165,319
887.135925,319
887.252747,332
887.369446,310
887.486267,317
887.603027,306
887.719788,331
887.836548,303
887.953247,307
888.070068,311
888.186829,316
888.303528,313
888.420288,315
888.536987,304
888.653687,324
888.770447,307
888.887146,309
889.003967,320
889.120667,321
889.237305,313
889.354065,306
889.470703,318
889.587463,314
889.704163,327
889.820862,322
889.937561,319
890.054199,312
890.170837,320
890.287598,333
890.404236,317
890.520874,323
890.637634,319
890.754211,318
890.87085,324
890.987549,319
891.104187,318
891.220886,309
891.337463,322
891.454102,311
891.57074,303
891.687378,296
891.804077,314
891.920654,316
892.037231,322
892.15387,325
892.270447,304
892.387085,323
892.503723,321
892.6203,307
892.736877,309
892.853516,320
892.970032,314
893.08667,323
893.203186,324
893.319763,313
893.43634,324
893.552917,312
893.669556,325
893.786011,315
893.902588,305
894.019165,316
894.135681,319
894.252197,316
894.368835,321
894.485291,333
894.601868,319
894.718384,332
894.8349,332
894.951355,327
895.067932,309
895.184448,322
895.300964,314
895.417419,322
895.533936,324
895.650452,309
895.766907,322
895.883423,320
895.999878,326
896.116333,308
896.232849,295
896.349304,322
896.465759,309
896.582214,328
896.698669,320
896.815125,328
896.931641,322
897.048035,334
897.164551,316
897.280884,317
897.397339,305
897.513794,316
897.630249,316
897.746582,316
897.863098,325
897.979431,322
898.095886,319
898.212341,326
898.328674,327
898.445129,315
898.561462,309
898.677795,323
898.794312,317
898.910645,313
899.026978,323
899.143433,316
899.259766,323
899.37616,315
899.492493,317
899.608765,341
899.725159,318
899.841553,336
899.957947,309
900.07428,312
900.190552,322
900.306946,318
900.423157,301
900.53949,324
900.655884,308
900.772156,328
900.888489,313
901.004822,321
901.121033,323
901.237366,301
901.353699,319
901.46991,316
901.586304,308
901.702515,319
901.818787,322
901.93512,323
902.051331,322
902.167603,331
902.283875,320
902.400085,328
902.516418,322
902.632629,327
902.74884,310
902.865112,308
902.981384,311
903.097595,318
903.213867,316
903.330017,316
903.446289,330
903.5625,329
903.67865,334
903.794922,322
903.911072,323
904.027344,307
904.143494,320
904.259705,317
904.375916,318
904.492065,329
904.608215,309
904.724426,324
904.840576,323
904.956726,319
905.072876,313
905.189087,313
905.305176,316
905.421387,327
905.537537,312
905.653687,336
905.769775,324
905.885925,315
906.002014,311
906.118164,324
906.234314,326
906.350403,318
906.466492,309
906.582642,308
906.69873,321
906.814758,321
906.930908,321
907.046936,332
907.163086,309
907.279175,310
907.395264,325
907.511353,311
907.62738,324
907.743408,331
907.859497,309
907.975525,323
908.091553,310
908.207703,319
908.32373,304
908.439758,317
908.555786,312
908.671814,308
908.787842,331
908.90387,315
909.019775,316
909.135864,328
909.251892,302
909.367859,322
909.483826,314
909.599854,317
909.715881,319
909.831848,313
909.947815,310
910.063782,318
910.179749,315
910.295776,319
910.411743,327
910.527649,335
910.643616,316
910.759583,331
910.875488,332
910.991455,315
911.107361,325
911.223267,330
911.339294,321
911.4552,319
911.571106,333
911.687073,328
911.802979,316
911.918823,317
912.034729,330
912.150635,316
912.266602,315
912.382446,321
912.498352,316
912.614197,310
912.730103,314
912.846008,312
792.44574,322
792.56488,350
792.68396,392
792.80304,377
792.92218,327
793.041199,306
793.160339,325
793.279419,346
793.398499,328
793.517578,310
793.636658,332
793.755737,334
793.874817,348
793.993896,350
794.112976,321
794.232056,329
794.351074,323
794.470215,327
794.589233,323
794.708313,338
794.827393,320
794.946411,336
795.065552,326
795.18457,341
795.303589,333
795.422668,339
795.541687,328
795.660767,328
795.779846,333
795.898865,332
796.017883,331
796.136963,331
796.255981,334
796.375061,327
796.49408,338
796.613037,329
796.732117,314
796.851135,329
796.970154,335
797.089233,323
797.208191,337
797.327271,330
797.446228,337
797.565186,328
797.684265,319
797.803223,317
797.922241,349
798.04126,339
798.160278,341
798.279297,330
798.398315,329
798.517273,335
798.636292,322
798.75531,335
798.874268,336
798.993286,338
799.112244,330
799.231323,322
799.350281,325
799.469238,325
799.588257,329
799.707153,323
799.826111,329
799.945129,325
800.064087,328
800.183044,332
800.302063,322
800.421021,328
800.539978,332
800.658936,324
800.777893,339
800.896912,331
801.015747,331
801.134705,324
801.253723,332
801.37262,328
801.491638,327
801.610535,327
801.729492,322
801.84845,339
801.967407,323
802.086243,323
802.205261,327
802.324158,319
802.443115,328
802.562073,329
802.680969,340
802.799927,328
802.918762,321
803.037659,324
803.156677,342
803.275574,339
803.39447,326
803.513428,313
803.632263,313
803.751221,332
803.870117,331
803.989014,326
804.107971,343
804.226746,347
804.345642,340
804.4646,333
804.583496,324
804.702393,324
804.821228,327
804.940125,330
805.059021,336
805.177917,330
805.296814,318
805.415649,324
805.534546,330
805.653442,310
805.772278,320
805.891113,331
806.01001,325
806.128906,330
806.247742,339
806.366577,332
806.485413,310
806.604309,332
806.723145,338
806.84198,331
806.960876,343
807.079712,340
807.198486,317
807.317383,333
807.436218,336
807.554993,319
807.673889,320
807.792725,339
807.91156,322
808.030396,332
808.14917,339
808.268005,324
808.386841,336
808.505676,346
808.624451,336
808.743286,321
808.862122,337
808.980896,331
809.099731,352
809.218506,341
809.337341,332
809.456116,329
809.57489,329
809.693726,329
809.8125,321
809.931274,322
810.050049,335
810.168884,327
810.287659,355
810.406372,327
810.525269,340
810.643982,332
810.762756,331
810.881531,317
811.000305,326
811.11908,331
811.237854,336
811.356567,338
811.475403,337
811.594116,330
811.71283,330
811.831604,333
811.950378,331
812.069153,330
812.187927,337
812.30658,321
812.425415,348
812.544128,331
812.662781,351
812.781616,318
812.900269,335
813.019043,335
813.137756,325
813.256531,322
813.375244,338
813.493896,327
813.612671,330
813.731384,335
813.850037,336
813.96875,328
814.087524,331
814.206238,339
814.324951,336
814.443604,335
814.562256,336
814.68103,329
814.799683,323
814.918335,331
815.037109,338
815.155762,336
815.274475,326
815.393188,332
815.511841,332
815.630554,341
815.749146,326
815.867859,332
815.986572,327
816.105164,328
816.223877,323
816.342529,342
816.461182,342
816.579895,328
816.698486,330
816.817139,341
816.935791,330
817.054504,333
817.173096,329
817.291748,326
817.4104,324
817.529053,321
817.647644,325
817.766235,333
817.884949,324
818.00354,333
818.122192,332
818.240845,325
818.359436,319
818.478088,327
818.59668,327
818.715271,323
818.833923,328
818.952515,319
819.071106,315
819.189758,331
819.30835,322
819.426941,313
819.545532,324
819.664124,332
819.782715,311
819.901306,326
820.019897,318
820.138489,308
820.25708,314
820.375671,317
820.494202,321
820.612732,328
820.731384,336
820.849915,316
820.968506,323
821.087097,317
821.205627,317
821.324158,316
821.442749,319
821.561279,323
821.679871,330
821.798401,310
821.916931,315
822.035461,317
822.154053,319
822.272583,316
822.391174,304
822.509583,313
822.628174,326
822.746704,324
822.865234,315
822.983765,321
823.102295,327
823.220825,330
823.339294,326
823.457825,315
823.576355,323
823.694824,318
823.813354,330
823.931885,317
824.050354,326
824.168884,313
824.287354,316
824.405823,323
824.524353,315
824.642822,315
824.761353,318
824.879822,326
824.998291,321
825.116699,324
825.235291,310
825.353699,315
825.472168,313
825.590637,305
825.709106,303
825.827576,317
825.946045,321
826.064453,318
826.182983,327
826.301392,321
826.4198,322
826.53833,319
826.656738,319
826.775208,328
826.893677,320
827.012024,311
827.130493,320
827.248962,321
827.36731,305
827.485779,310
827.604248,303
827.722595,321
827.841064,311
827.959412,323
828.077942,312
828.196289,300
828.314636,319
828.433105,326
828.551514,322
828.669861,323
828.78833,313
828.906677,308
829.025085,315
829.143433,321
829.261841,311
829.38031,319
829.498657,317
829.617004,316
829.735413,304
829.85376,316
829.972107,313
830.090515,310
830.208862,324
830.327209,314
830.445557,314
830.563904,301
830.682312,315
830.800659,315
830.919006,318
831.037354,312
831.155701,320
831.274048,319
831.392395,315
831.51062,303
831.629028,322
831.747314,316
831.865662,305
831.984009,316
832.102356,329
832.220642,316
832.338928,310
832.457275,319
832.575623,311
832.693909,314
832.812134,333
832.930481,313
833.048828,320
833.167114,319
833.2854,306
833.403687,318
833.521973,324
833.640259,323
833.758545,310
833.876831,314
833.995056,318
834.113281,328
834.231628,314
834.349915,318
834.468201,317
834.586426,316
834.704651,310
834.822998,309
834.941162,321
835.059448,322
835.177673,325
835.295959,320
835.414246,308
835.53241,308
835.650635,327
835.768921,324
835.887146,333
836.005371,324
836.123596,310
836.241821,319
836.360046,315
836.478271,311
836.596497,314
836.714722,319
836.832886,310
836.95105,315
837.069336,313
837.1875,312
837.305725,303
837.423889,321
837.542053,313
837.660339,310
837.778503,313
837.896667,320
838.014832,309
838.132996,339
838.25116,319
838.369385,319
838.487488,325
838.605713,328
838.723877,324
838.84198,320
838.960205,319
839.078308,311
839.196472,321
839.314636,335
839.4328,319
839.550964,327
839.669067,327
839.787231,323
839.905396,315
840.023499,323
840.141602,305
840.259766,314
840.377869,315
840.495972,314
840.614136,328
840.732239,311
840.850342,321
840.968445,308
841.086548,313
841.204651,315
841.322754,307
841.440918,319
841.55896,320
841.677002,333
841.795166,305
841.913208,313
842.031311,305
842.149353,308
842.267456,299
842.385498,312
842.503601,315
842.621643,315
842.739746,307
842.857788,316
842.97583,323
843.093933,302
843.211975,309
843.330017,311
843.44812,300
843.566101,323
843.684204,313
843.802246,321
843.920227,319
844.038269,309
844.156311,322
844.274292,311
844.392395,326
844.510376,313
844.628357,311
844.74646,327
844.864441,316
844.982422,321
845.100403,309
845.218384,338
845.336426,307
845.454468,310
845.572449,317
845.69043,314
845.808411,315
845.926453,303
846.044373,304
846.162354,312
846.280396,302
846.398315,315
846.516296,314
846.634216,307
846.752197,324
846.870178,320
846.988098,330
847.106079,307
847.22406,309
847.34198,317
847.4599,320
847.577881,318
847.695801,326
847.813782,310
847.931641,310
848.049561,324
848.167603,327
848.285461,319
848.403381,312
848.521362,313
848.639221,305
848.75708,334
848.875,316
848.99292,325
849.110901,315
849.22876,330
849.34668,308
849.464539,315
849.582458,307
849.700317,335
849.818176,316
849.936096,313
850.053955,326
850.171875,320
850.289673,315
850.407593,304
850.525452,310
850.643311,307
850.761169,322
850.878967,330
850.996887,319
851.114746,318
851.232544,315
851.350403,316
851.468262,317
851.58606,313
851.703979,325
851.821777,323
851.939636,322
852.057434,311
852.175232,313
852.293091,323
852.410889,314
852.528687,329
852.646545,319
852.764343,304
852.88208,326
852.999939,316
853.117676,324
853.235535,311
853.353271,303
853.471069,326
853.588928,324
853.706604,320
853.824402,323
853.9422,317
854.059998,317
854.177734,311
854.295532,318
854.413269,313
854.531006,304
854.648804,320
854.766541,327
854.884277,323
855.002014,315
855.119751,305
855.237549,318
855.355225,319
855.473022,317
855.590698,329
855.708435,307
855.826172,324
855.943848,318
856.061646,322
856.179321,326
856.296997,316
856.414795,318
856.53241,322
856.650085,307
856.767822,312
856.885559,315
857.003174,325
857.120911,329
857.238586,326
857.356201,327
857.473938,317
857.591614,319
857.709351,311
857.826965,323
857.944641,323
858.062317,318
858.179993,312
858.297668,314
858.415283,322
858.532959,316
858.650574,334
858.768188,321
858.885803,317
859.003479,311
859.121094,324
859.23877,306
859.356384,329
859.473999,314
859.591675,310
859.709229,314
859.826843,299
859.944458,321
860.062012,313
860.179626,314
860.297302,328
860.414856,304
860.532471,320
860.650024,312
860.767639,318
860.885193,314
861.002808,309
861.120361,307
861.237976,316
861.35553,301
861.473022,310
861.590698,322
861.708191,313
861.825745,311
861.943298,317
862.060852,315
862.178406,306
862.295959,310
862.413513,315
862.531006,304
862.64856,323
862.766113,315
862.883667,317
863.00116,326
863.118713,317
863.236206,301
863.353699,310
863.471252,320
863.588745,310
863.706177,318
863.82373,315
863.941162,318
864.058716,324
864.176208,314
864.29364,311
864.411194,323
864.528687,316
864.646118,321
864.763611,325
864.881042,316
864.998535,323
865.116028,310
865.233459,327
865.350891,310
865.468384,318
865.585754,333
865.703308,320
865.820679,306
865.938171,331
866.055542,314
866.173035,333
866.290466,304
866.407837,330
866.52533,309
866.6427,324
866.760071,305
866.877563,309
866.994934,320
867.112305,319
867.229736,315
867.347107,312
867.464539,308
867.58197,315
867.699341,310
867.81665,319
867.934082,315
868.051453,320
868.168823,310
868.286194,311
868.403564,321
868.520935,310
868.638306,321
868.755676,326
868.872986,314
868.990295,339
869.107727,315
869.225037,326
869.342346,318
869.459717,322
869.577026,317
869.694336,330
869.811707,305
869.929016,312
870.046326,317
870.163635,320
870.280945,322
870.398254,326
870.515564,304
870.632812,326
870.750183,300
870.867432,321
870.984741,306
871.102051,315
871.219299,300
871.336609,314
871.453918,308
871.571106,323
871.688416,313
871.805664,321
871.922852,310
872.040222,312
872.157471,311
872.274719,333
872.391968,307
872.509155,319
872.626465,321
872.743652,317
872.860962,317
872.978149,313
873.095337,324
873.212646,332
873.329834,308
873.44696,326
873.564209,308
873.681396,317
873.798645,315
873.915894,311
874.03302,311
874.150208,312
874.267456,298
874.384583,317
874.501831,311
874.618958,332
874.736145,308
874.853333,320
874.970459,324
875.087646,330
875.204834,314
875.32196,324
875.439148,314
875.556274,328
875.673401,307
875.790527,314
875.907715,321
876.024841,318
876.141968,332
876.259094,315
876.376282,332
876.493347,307
876.610474,306
876.7276,295
876.844727,317
876.961853,321
877.078918,323
877.195984,315
877.313171,302
877.430237,330
877.547302,324
877.664368,312
877.781433,315
877.898499,328
878.015625,316
878.13269,324
878.249695,312
878.366821,326
878.483887,316
878.600952,333
878.717957,304
878.834961,333
878.952087,306
879.069092,310
879.186157,310
879.303162,311
879.420227,313
879.537231,306
879.654236,319
879.77124,313
879.888306,312
880.005249,310
880.122314,310
880.239319,326
880.356323,317
880.473328,315
880.590271,311
880.707275,312
880.824341,314
880.941284,324
881.058228,313
881.175232,316
881.292236,315
881.40918,315
881.526123,316
881.643066,320
881.760071,323
881.877014,302
881.993958,328
882.11084,318
882.227783,313
882.344727,314
882.46167,325
882.578613,315
882.695618,312
882.812439,327
882.929382,315
883.046326,315
883.163208,311
883.280151,309
883.397034,317
883.513916,323
883.630798,306
883.747742,326
883.864563,308
883.981506,320
884.098389,316
884.21521,321
884.332153,318
884.448975,315
884.565796,319
884.682678,319
884.7995,311
884.916443,327
885.033264,326
885.150085,311
885.266968,317
885.383789,318
885.500671,324
885.617493,314
885.734314,317
885.851196,316
885.967896,324
886.084717,323
886.201599,318
886.318359,310
886.435181,323
886.552002,326
886.668762,311
886.785645,320
886.902344,311
887.019165,316
887.135925,315
887.252747,317
887.369446,319
887.486267,318
887.603027,316
887.719788,325
887.836548,316
887.953247,314
888.070068,322
888.186829,335
888.303528,328
888.420288,310
888.536987,329
888.653687,319
888.770447,320
888.887146,322
889.003967,316
889.120667,323
889.237305,324
889.354065,316
889.470703,309
889.587463,313
889.704163,321
889.820862,327
889.937561,319
890.054199,318
890.170837,319
890.287598,318
890.404236,315
890.520874,319
890.637634,317
890.754211,313
890.87085,314
890.987549,326
891.104187,306
891.220886,323
891.337463,330
891.454102,334
891.57074,311
891.687378,300
891.804077,323
891.920654,325
892.037231,315
892.15387,319
892.270447,302
892.387085,317
892.503723,319
892.6203,330
892.736877,317
892.853516,324
892.970032,316
893.08667,311
893.203186,313
893.319763,316
893.43634,331
893.552917,314
893.669556,332
893.786011,316
893.902588,320
894.019165,314
894.135681,299
894.252197,326
894.368835,321
894.485291,334
894.601868,322
894.718384,311
894.8349,327
894.951355,316
895.067932,324
895.184448,326
895.300964,311
895.417419,312
895.533936,318
895.650452,305
895.766907,319
895.883423,322
895.999878,312
896.116333,317
896.232849,314
896.349304,325
896.465759,316
896.582214,313
896.698669,321
896.815125,313
896.931641,317
897.048035,310
897.164551,310
897.280884,315
897.397339,320
897.513794,320
897.630249,313
897.746582,308
897.863098,321
897.979431,329
898.095886,324
898.212341,310
898.328674,328
898.445129,317
898.561462,326
898.677795,330
898.794312,321
898.910645,317
899.026978,319
899.143433,320
899.259766,316
899.37616,317
899.492493,315
899.608765,322
899.725159,316
899.841553,312
899.957947,332
900.07428,317
900.190552,307
900.306946,323
900.423157,322
900.53949,327
900.655884,313
900.772156,315
900.888489,324
901.004822,322
901.121033,311
901.237366,324
901.353699,311
901.46991,310
901.586304,312
901.702515,320
901.818787,313
901.93512,319
902.051331,315
902.167603,306
902.283875,306
902.400085,319
902.516418,312
902.632629,328
902.74884,308
902.865112,318
902.981384,311
903.097595,319
903.213867,308
903.330017,322
903.446289,313
903.5625,314
903.67865,311
903.794922,325
903.911072,328
904.027344,326
904.143494,318
904.259705,314
904.375916,305
904.492065,339
904.608215,300
904.724426,324
904.840576,316
904.956726,330
905.072876,315
905.189087,306
905.305176,312
905.421387,309
905.537537,335
905.653687,320
905.769775,319
905.885925,324
906.002014,318
906.118164,332
906.234314,306
906.350403,318
906.466492,312
906.582642,321
906.69873,319
906.814758,323
906.930908,315
907.046936,323
907.163086,326
907.279175,333
907.395264,302
907.511353,323
907.62738,317
907.743408,329
907.859497,316
907.975525,316
908.091553,310
908.207703,317
908.32373,313
908.439758,307
908.555786,316
908.671814,330
908.787842,318
908.90387,318
909.019775,333
909.135864,318
909.251892,320
909.367859,324
909.483826,312
909.599854,327
909.715881,321
909.831848,322
909.947815,300
910.063782,328
910.179749,312
910.295776,315
910.411743,334
910.527649,323
910.643616,318
910.759583,336
910.875488,328
910.991455,316
911.107361,311
911.223267,324
911.339294,306
911.4552,328
911.571106,306
911.687073,330
911.802979,319
911.918823,326
912.034729,320
912.150635,320
912.266602,324
912.382446,301
912.498352,309
912.614197,326
912.730103,314
912.846008,329
792.44574,307
792.56488,356
792.68396,393
792.80304,379
792.92218,328
793.041199,313
793.160339,342
793.279419,343
793.398499,334
793.517578,306
793.636658,324
793.755737,328
793.874817,353
793.993896,348
794.112976,334
794.232056,330
794.351074,318
794.470215,326
794.589233,349
794.708313,334
794.827393,339
794.946411,318
795.065552,344
795.18457,337
795.303589,325
795.422668,326
795.541687,331
795.660767,333
795.779846,325
795.898865,334
796.017883,325
796.136963,320
796.255981,343
796.375061,327
796.49408,336
796.613037,329
796.732117,345
796.851135,316
796.970154,319
797.089233,325
797.208191,324
797.327271,332
797.446228,322
797.565186,329
797.684265,331
797.803223,341
797.922241,321
798.04126,345
798.160278,346
798.279297,325
798.398315,332
798.517273,333
798.636292,332
798.75531,320
798.874268,329
798.993286,333
799.112244,340
799.231323,328
799.350281,332
799.469238,336
799.588257,322
799.707153,332
799.826111,326
799.945129,325
800.064087,343
800.183044,324
800.302063,327
800.421021,316
800.539978,334
800.658936,323
800.777893,333
800.896912,330
801.015747,338
801.134705,334
801.253723,330
801.37262,328
801.491638,337
801.610535,313
801.729492,326
801.84845,332
801.967407,325
802.086243,312
802.205261,331
802.324158,325
802.443115,327
802.562073,323
802.680969,324
802.799927,330
802.918762,326
803.037659,322
803.156677,330
803.275574,332
803.39447,338
803.513428,322
803.632263,332
803.751221,335
803.870117,327
803.989014,326
804.107971,322
804.226746,327
804.345642,336
804.4646,339
804.583496,345
804.702393,333
804.821228,332
804.940125,344
805.059021,330
805.177917,326
805.296814,334
805.415649,305
805.534546,350
805.653442,323
805.772278,326
805.891113,326
806.01001,333
806.128906,345
806.247742,340
806.366577,332
806.485413,333
806.604309,325
806.723145,331
806.84198,324
806.960876,333
807.079712,325
807.198486,315
807.317383,329
807.436218,328
807.554993,324
807.673889,339
807.792725,326
807.91156,333
808.030396,336
808.14917,332
808.268005,327
808.386841,331
808.505676,329
808.624451,328
808.743286,337
808.862122,339
808.980896,324
809.099731,333
809.218506,334
809.337341,332
809.456116,334
809.57489,326
809.693726,323
809.8125,329
809.931274,320
810.050049,343
810.168884,343
810.287659,326
810.406372,337
810.525269,337
810.643982,337
810.762756,331
810.881531,322
811.000305,340
811.11908,331
811.237854,335
811.356567,327
811.475403,325
811.594116,337
811.71283,341
811.831604,334
811.950378,339
812.069153,327
812.187927,324
812.30658,317
812.425415,338
812.544128,318
812.662781,340
812.781616,324
812.900269,335
813.019043,332
813.137756,337
813.256531,318
813.375244,321
813.493896,343
813.612671,343
813.731384,334
813.850037,319
813.96875,324
814.087524,341
814.206238,319
814.324951,340
814.443604,335
814.562256,336
814.68103,324
814.799683,313
814.918335,329
815.037109,337
815.155762,322
815.274475,321
815.393188,318
815.511841,337
815.630554,320
815.749146,334
815.867859,339
815.986572,333
816.105164,330
816.223877,323
816.342529,327
816.461182,325
816.579895,334
816.698486,329
816.817139,349
816.935791,339
817.054504,334
817.173096,343
817.291748,324
817.4104,340
817.529053,315
817.647644,346
817.766235,329
817.884949,345
818.00354,334
818.122192,323
818.240845,323
818.359436,326
818.478088,328
818.59668,323
818.715271,321
818.833923,321
818.952515,322
819.071106,331
819.189758,330
819.30835,325
819.426941,309
819.545532,338
819.664124,325
819.782715,303
819.901306,313
820.019897,324
820.138489,316
820.25708,318
820.375671,336
820.494202,323
820.612732,300
820.731384,317
820.849915,317
820.968506,331
821.087097,316
821.205627,316
821.324158,320
821.442749,325
821.561279,324
821.679871,314
821.798401,317
821.916931,313
822.035461,306
822.154053,325
822.272583,311
822.391174,325
822.509583,322
822.628174,311
822.746704,330
822.865234,313
822.983765,313
823.102295,311
823.220825,314
823.339294,319
823.457825,314
823.576355,327
823.694824,314
823.813354,323
823.931885,316
824.050354,320
824.168884,316
824.287354,322
824.405823,313
824.524353,315
824.642822,316
824.761353,325
824.879822,304
824.998291,315
825.116699,334
825.235291,304
825.353699,328
825.472168,318
825.590637,315
825.709106,322
825.827576,309
825.946045,324
826.064453,328
826.182983,330
826.301392,307
826.4198,320
826.53833,306
826.656738,317
826.775208,319
826.893677,315
827.012024,324
827.130493,320
827.248962,329
827.36731,319
827.485779,321
827.604248,313
827.722595,319
827.841064,316
827.959412,321
828.077942,314
828.196289,306
828.314636,313
828.433105,312
828.551514,310
828.669861,321
828.78833,314
828.906677,325
829.025085,310
829.143433,325
829.261841,322
829.38031,305
829.498657,311
829.617004,310
829.735413,322
829.85376,327
829.972107,324
830.090515,318
830.208862,328
830.327209,315
830.445557,318
830.563904,321
830.682312,328
830.800659,315
830.919006,324
831.037354,312
831.155701,311
831.274048,305
831.392395,313
831.51062,327
831.629028,305
831.747314,311
831.865662,315
831.984009,321
832.102356,319
832.220642,334
832.338928,322
832.457275,313
832.575623,320
832.693909,314
832.812134,315
832.930481,305
833.048828,324
833.167114,312
833.2854,311
833.403687,321
833.521973,327
833.640259,317
833.758545,324
833.876831,317
833.995056,315
834.113281,314
834.231628,295
834.349915,318
834.468201,334
834.586426,318
834.704651,306
834.822998,321
834.941162,336
835.059448,313
835.177673,327
835.295959,313
835.414246,319
835.53241,321
835.650635,322
835.768921,324
835.887146,319
836.005371,315
836.123596,310
836.241821,325
836.360046,331
836.478271,320
836.596497,316
836.714722,325
836.832886,315
836.95105,333
837.069336,325
837.1875,327
837.305725,311
837.423889,325
837.542053,312
837.660339,327
837.778503,316
837.896667,323
838.014832,336
838.132996,326
838.25116,312
838.369385,327
838.487488,321
838.605713,317
838.723877,330
838.84198,313
838.960205,317
839.078308,326
839.196472,331
839.314636,306
839.4328,328
839.550964,332
839.669067,306
839.787231,319
839.905396,320
840.023499,325
840.141602,322
840.259766,314
840.377869,325
840.495972,312
840.614136,327
840.732239,317
840.850342,327
840.968445,319
841.086548,329
841.204651,306
841.322754,326
841.440918,310
841.55896,323
841.677002,315
841.795166,319
841.913208,326
842.031311,315
842.149353,313
842.267456,301
842.385498,301
842.503601,321
842.621643,310
842.739746,319
842.857788,294
842.97583,321
843.093933,319
843.211975,316
843.330017,309
843.44812,326
843.566101,313
843.684204,318
843.802246,305
843.920227,320
844.038269,308
844.156311,316
844.274292,321
844.392395,314
844.510376,331
844.628357,318
844.74646,315
844.864441,322
844.982422,320
845.100403,326
845.218384,325
845.336426,313
845.454468,309
845.572449,325
845.69043,316
845.808411,323
845.926453,314
846.044373,324
846.162354,312
846.280396,332
846.398315,313
846.516296,319
846.634216,316
846.752197,329
846.870178,324
846.988098,313
847.106079,317
847.22406,316
847.34198,316
847.4599,324
847.577881,315
847.695801,308
847.813782,313
847.931641,313
848.049561,310
848.167603,331
848.285461,300
848.403381,333
848.521362,312
848.639221,309
848.75708,314
848.875,318
848.99292,322
849.110901,314
849.22876,309
849.34668,312
849.464539,323
849.582458,313
849.700317,320
849.818176,325
849.936096,320
850.053955,316
850.171875,312
850.289673,314
850.407593,313
850.525452,300
850.643311,323
850.761169,324
850.878967,316
850.996887,309
851.114746,310
851.232544,304
851.350403,312
851.468262,311
851.58606,318
851.703979,319
851.821777,315
851.939636,305
852.057434,317
852.175232,319
852.293091,309
852.410889,312
852.528687,305
852.646545,327
852.764343,317
852.88208,328
852.999939,315
853.117676,321
853.235535,315
853.353271,320
853.471069,319
853.588928,316
853.706604,302
853.824402,305
853.9422,326
854.059998,312
854.177734,308
854.295532,308
854.413269,309
854.531006,324
854.648804,308
854.766541,313
854.884277,322
855.002014,310
855.119751,306
855.237549,320
855.355225,306
855.473022,315
855.590698,319
855.708435,316
855.826172,311
855.943848,316
856.061646,303
856.179321,314
856.296997,310
856.414795,320
856.53241,311
856.650085,305
856.767822,317
856.885559,326
857.003174,313
857.120911,322
857.238586,307
857.356201,312
857.473938,317
857.591614,324
857.709351,320
857.826965,325
857.944641,330
858.062317,325
858.179993,326
858.297668,320
858.415283,311
858.532959,312
858.650574,315
858.768188,320
858.885803,307
859.003479,328
859.121094,322
859.23877,316
859.356384,315
859.473999,320
859.591675,313
859.709229,327
859.826843,314
859.944458,311
860.062012,311
860.179626,323
860.297302,309
860.414856,307
860.532471,316
860.650024,315
860.767639,312
860.885193,333
861.002808,323
861.120361,311
861.237976,309
861.35553,327
861.473022,305
861.590698,335
861.708191,322
861.825745,319
861.943298,318
862.060852,318
862.178406,311
862.295959,324
862.413513,323
862.531006,322
862.64856,307
862.766113,332
862.883667,318
863.00116,322
863.118713,326
863.236206,319
863.353699,316
863.471252,320
863.588745,302
863.706177,322
863.82373,318
863.941162,321
864.058716,319
864.176208,320
864.29364,295
864.411194,314
864.528687,316
864.646118,311
864.763611,313
864.881042,312
864.998535,307
865.116028,332
865.233459,325
865.350891,319
865.468384,295
865.585754,322
865.703308,311
865.820679,316
865.938171,310
866.055542,316
866.173035,322
866.290466,330
866.407837,320
866.52533,310
866.6427,298
866.760071,319
866.877563,309
866.994934,317
867.112305,314
867.229736,326
867.347107,321
867.464539,323
867.58197,322
867.699341,330
867.81665,333
867.934082,321
868.051453,318
868.168823,307
868.286194,319
868.403564,311
868.520935,313
868.638306,324
868.755676,300
868.872986,319
868.990295,315
869.107727,313
869.225037,328
869.342346,313
869.459717,318
869.577026,313
869.694336,301
869.811707,310
869.929016,314
870.046326,311
870.163635,313
870.280945,309
870.398254,330
870.515564,326
870.632812,320
870.750183,309
870.867432,314
870.984741,320
871.102051,315
871.219299,307
871.336609,320
871.453918,315
871.571106,331
871.688416,313
871.805664,318
871.922852,312
872.040222,305
872.157471,333
872.274719,316
872.391968,321
872.509155,311
872.626465,310
872.743652,323
872.860962,321
872.978149,311
873.095337,317
873.212646,323
873.329834,320
873.44696,309
873.564209,323
873.681396,309
873.798645,320
873.915894,313
874.03302,333
874.150208,317
874.267456,320
874.384583,321
874.501831,320
874.618958,312
874.736145,325
874.853333,320
874.970459,334
875.087646,315
875.204834,321
875.32196,314
875.439148,320
875.556274,302
875.673401,318
875.790527,319
875.907715,327
876.024841,328
876.141968,319
876.259094,321
876.376282,323
876.493347,323
876.610474,316
876.7276,322
876.844727,328
876.961853,319
877.078918,321
877.195984,318
877.313171,320
877.430237,321
877.547302,317
877.664368,312
877.781433,326
877.898499,308
878.015625,319
878.13269,324
878.249695,330
878.366821,316
878.483887,312
878.600952,316
878.717957,322
878.834961,320
878.952087,320
879.069092,319
879.186157,319
879.303162,318
879.420227,308
879.537231,320
879.654236,323
879.77124,314
879.888306,330
880.005249,307
880.122314,315
880.239319,319
880.356323,322
880.473328,318
880.590271,313
880.707275,308
880.824341,320
880.941284,329
881.058228,318
881.175232,320
881.292236,320
881.40918,322
881.526123,319
881.643066,315
881.760071,327
881.877014,312
881.993958,319
882.11084,318
882.227783,301
882.344727,316
882.46167,319
882.578613,318
882.695618,311
882.812439,310
882.929382,323
883.046326,317
883.163208,310
883.280151,309
883.397034,337
883.513916,305
883.630798,315
883.747742,315
883.864563,316
883.981506,324
884.098389,320
884.21521,320
884.332153,325
884.448975,328
884.565796,312
884.682678,317
884.7995,333
884.916443,320
885.033264,330
885.150085,322
885.266968,314
885.383789,318
885.500671,331
885.617493,319
885.734314,316
885.851196,315
885.967896,328
886.084717,309
886.201599,318
886.318359,308
886.435181,324
886.552002,325
886.668762,310
886.785645,309
886.902344,323
887.019165,331
887.135925,319
887.252747,312
887.369446,335
887.486267,320
887.603027,324
887.719788,330
887.836548,319
887.953247,318
888.070068,322
888.186829,314
888.303528,324
888.420288,315
888.536987,303
888.653687,309
888.770447,306
888.887146,318
889.003967,321
889.120667,315
889.237305,325
889.354065,326
889.470703,321
889.587463,312
889.704163,334
889.820862,312
889.937561,317
890.054199,311
890.170837,321
890.287598,310
890.404236,319
890.520874,316
890.637634,326
890.754211,312
890.87085,321
890.987549,315
891.104187,323
891.220886,302
891.337463,329
891.454102,322
891.57074,321
891.687378,319
891.804077,319
891.920654,304
892.037231,328
892.15387,313
892.270447,321
892.387085,327
892.503723,302
892.6203,328
892.736877,319
892.853516,320
892.970032,334
893.08667,317
893.203186,325
893.319763,317
893.43634,331
893.552917,315
893.669556,322
893.786011,313
893.902588,318
894.019165,318
894.135681,323
894.252197,303
894.368835,330
894.485291,308
894.601868,320
894.718384,321
894.8349,308
894.951355,316
895.067932,321
895.184448,306
895.300964,312
895.417419,309
895.533936,320
895.650452,326
895.766907,320
895.883423,328
895.999878,311
896.116333,322
896.232849,316
896.349304,315
896.465759,330
896.582214,321
896.698669,319
896.815125,314
896.931641,310
897.048035,317
897.164551,315
897.280884,314
897.397339,321
897.513794,303
897.630249,313
897.746582,309
897.863098,322
897.979431,315
898.095886,318
898.212341,299
898.328674,326
898.445129,313
898.561462,326
898.677795,313
898.794312,326
898.910645,308
899.026978,325
899.143433,307
899.259766,300
899.37616,318
899.492493,321
899.608765,321
899.725159,320
899.841553,317
899.957947,312
900.07428,320
900.190552,319
900.306946,307
900.423157,318
900.53949,325
900.655884,316
900.772156,319
900.888489,323
901.004822,301
901.121033,311
901.237366,306
901.353699,325
901.46991,311
901.586304,322
901.702515,320
901.818787,325
901.93512,328
902.051331,322
902.167603,327
902.283875,316
902.400085,311
902.516418,316
902.632629,318
902.74884,331
902.865112,300
902.981384,320
903.097595,319
903.213867,335
903.330017,316
903.446289,321
903.5625,305
903.67865,315
903.794922,312
903.911072,330
904.027344,317
904.143494,315
904.259705,305
904.375916,321
904.492065,303
904.608215,333
904.724426,314
904.840576,338
904.956726,316
905.072876,314
905.189087,315
905.305176,315
905.421387,315
905.537537,330
905.653687,318
905.769775,320
905.885925,323
906.002014,318
906.118164,305
906.234314,322
906.350403,324
906.466492,307
906.582642,322
906.69873,326
906.814758,323
906.930908,330
907.046936,319
907.163086,321
907.279175,327
907.395264,319
907.511353,314
907.62738,323
907.743408,324
907.859497,319
907.975525,324
908.091553,326
908.207703,326
908.32373,324
908.439758,305
908.555786,329
908.671814,318
908.787842,339
908.90387,317
909.019775,320
909.135864,302
909.251892,325
909.367859,316
909.483826,326
909.599854,307
909.715881,322
909.831848,315
909.947815,319
910.063782,308
910.179749,337
910.295776,312
910.411743,313
910.527649,321
910.643616,323
910.759583,317
910.875488,317
910.991455,326
911.107361,326
911.223267,319
911.339294,315
911.4552,310
911.571106,322
911.687073,311
911.802979,319
911.918823,314
912.034729,325
912.150635,308
912.266602,323
912.382446,318
912.498352,305
912.614197,315
912.730103,320
912.846008,311
