792.44574,347
792.56488,381
792.68396,419
792.80304,416
792.92218,369
793.041199,355
793.160339,339
793.279419,355
793.398499,342
793.517578,334
793.636658,342
793.755737,352
793.874817,374
793.993896,363
794.112976,346
794.232056,342
794.351074,332
794.470215,343
794.589233,351
794.708313,330
794.827393,334
794.946411,330
795.065552,334
795.18457,348
795.303589,335
795.422668,345
795.541687,335
795.660767,338
795.779846,331
795.898865,332
796.017883,335
796.136963,325
796.255981,333
796.375061,337
796.49408,327
796.613037,338
796.732117,329
796.851135,330
796.970154,346
797.089233,332
797.208191,324
797.327271,333
797.446228,314
797.565186,323
797.684265,336
797.803223,318
797.922241,339
798.04126,328
798.160278,349
798.279297,333
798.398315,328
798.517273,329
798.636292,312
798.75531,341
798.874268,326
798.993286,327
799.112244,338
799.231323,321
799.350281,341
799.469238,323
799.588257,316
799.707153,313
799.826111,326
799.945129,314
800.064087,332
800.183044,320
800.302063,320
800.421021,322
800.539978,321
800.658936,331
800.777893,332
800.896912,333
801.015747,335
801.134705,321
801.253723,315
801.37262,326
801.491638,324
801.610535,325
801.729492,333
801.84845,328
801.967407,329
802.086243,316
802.205261,332
802.324158,310
802.443115,322
802.562073,332
802.680969,318
802.799927,327
802.918762,324
803.037659,322
803.156677,327
803.275574,337
803.39447,329
803.513428,333
803.632263,321
803.751221,328
803.870117,323
803.989014,317
804.107971,331
804.226746,322
804.345642,324
804.4646,324
804.583496,330
804.702393,319
804.821228,326
804.940125,327
805.059021,312
805.177917,319
805.296814,334
805.415649,336
805.534546,322
805.653442,324
805.772278,320
805.891113,328
806.01001,330
806.128906,322
806.247742,328
806.366577,331
806.485413,324
806.604309,311
806.723145,330
806.84198,322
806.960876,325
807.079712,323
807.198486,329
807.317383,323
807.436218,333
807.554993,333
807.673889,324
807.792725,338
807.91156,318
808.030396,318
808.14917,316
808.268005,320
808.386841,329
808.505676,315
808.624451,327
808.743286,310
808.862122,320
808.980896,324
809.099731,323
809.218506,326
809.337341,323
809.456116,332
809.57489,332
809.693726,333
809.8125,320
809.931274,332
810.050049,315
810.168884,342
810.287659,329
810.406372,334
810.525269,323
810.643982,304
810.762756,318
810.881531,324
811.000305,326
811.11908,325
811.237854,331
811.356567,313
811.475403,316
811.594116,307
811.71283,339
811.831604,325
811.950378,329
812.069153,305
812.187927,319
812.30658,312
812.425415,324
812.544128,328
812.662781,322
812.781616,311
812.900269,335
813.019043,312
813.137756,332
813.256531,323
813.375244,341
813.493896,325
813.612671,333
813.731384,324
813.850037,344
813.96875,325
814.087524,337
814.206238,321
814.324951,328
814.443604,311
814.562256,324
814.68103,326
814.799683,331
814.918335,321
815.037109,323
815.155762,327
815.274475,330
815.393188,316
815.511841,327
815.630554,325
815.749146,323
815.867859,314
815.986572,324
816.105164,324
816.223877,313
816.342529,321
816.461182,327
816.579895,320
816.698486,324
816.817139,320
816.935791,328
817.054504,335
817.173096,320
817.291748,329
817.4104,323
817.529053,309
817.647644,327
817.766235,324
817.884949,336
818.00354,324
818.122192,318
818.240845,319
818.359436,309
818.478088,315
818.59668,320
818.715271,325
818.833923,328
818.952515,324
819.071106,310
819.189758,330
819.30835,333
819.426941,320
819.545532,318
819.664124,324
819.782715,320
819.901306,327
820.019897,303
820.138489,318
820.25708,318
820.375671,321
820.494202,313
820.612732,319
820.731384,322
820.849915,322
820.968506,306
821.087097,321
821.205627,320
821.324158,321
821.442749,329
821.561279,308
821.679871,315
821.798401,314
821.916931,320
822.035461,323
822.154053,315
822.272583,319
822.391174,318
822.509583,313
822.628174,328
822.746704,315
822.865234,322
822.983765,323
823.102295,324
823.220825,322
823.339294,319
823.457825,312
823.576355,324
823.694824,313
823.813354,320
823.931885,324
824.050354,319
824.168884,322
824.287354,312
824.405823,312
824.524353,320
824.642822,317
824.761353,316
824.879822,316
824.998291,308
825.116699,326
825.235291,332
825.353699,321
825.472168,331
825.590637,326
825.709106,322
825.827576,312
825.946045,318
826.064453,315
826.182983,316
826.301392,319
826.4198,318
826.53833,322
826.656738,326
826.775208,319
826.893677,339
827.012024,314
827.130493,321
827.248962,329
827.36731,324
827.485779,320
827.604248,324
827.722595,310
827.841064,317
827.959412,317
828.077942,321
828.196289,303
828.314636,323
828.433105,316
828.551514,325
828.669861,310
828.78833,307
828.906677,315
829.025085,326
829.143433,315
829.261841,319
829.38031,311
829.498657,319
829.617004,316
829.735413,331
829.85376,304
829.972107,321
830.090515,313
830.208862,310
830.327209,313
830.445557,317
830.563904,303
830.682312,325
830.800659,320
830.919006,326
831.037354,309
831.155701,314
831.274048,307
831.392395,322
831.51062,320
831.629028,322
831.747314,304
831.865662,330
831.984009,305
832.102356,315
832.220642,315
832.338928,328
832.457275,306
832.575623,313
832.693909,309
832.812134,315
832.930481,320
833.048828,327
833.167114,318
833.2854,329
833.403687,302
833.521973,318
833.640259,316
833.758545,328
833.876831,309
833.995056,321
834.113281,311
834.231628,320
834.349915,321
834.468201,322
834.586426,317
834.704651,336
834.822998,309
834.941162,321
835.059448,301
835.177673,316
835.295959,320
835.414246,307
835.53241,321
835.650635,310
835.768921,316
835.887146,322
836.005371,306
836.123596,315
836.241821,312
836.360046,322
836.478271,303
836.596497,307
836.714722,330
836.832886,319
836.95105,330
837.069336,322
837.1875,313
837.305725,334
837.423889,323
837.542053,317
837.660339,319
837.778503,329
837.896667,320
838.014832,343
838.132996,312
838.25116,325
838.369385,318
838.487488,325
838.605713,310
838.723877,316
838.84198,319
838.960205,319
839.078308,328
839.196472,309
839.314636,308
839.4328,317
839.550964,329
839.669067,313
839.787231,317
839.905396,319
840.023499,322
840.141602,310
840.259766,319
840.377869,319
840.495972,323
840.614136,305
840.732239,301
840.850342,331
840.968445,319
841.086548,318
841.204651,321
841.322754,326
841.440918,329
841.55896,328
841.677002,299
841.795166,327
841.913208,315
842.031311,341
842.149353,322
842.267456,320
842.385498,326
842.503601,322
842.621643,334
842.739746,317
842.857788,319
842.97583,314
843.093933,315
843.211975,318
843.330017,321
843.44812,317
843.566101,319
843.684204,320
843.802246,307
843.920227,325
844.038269,320
844.156311,324
844.274292,312
844.392395,347
844.510376,315
844.628357,327
844.74646,309
844.864441,320
844.982422,315
845.100403,315
845.218384,316
845.336426,331
845.454468,319
845.572449,324
845.69043,316
845.808411,322
845.926453,320
846.044373,319
846.162354,319
846.280396,318
846.398315,319
846.516296,316
846.634216,320
846.752197,327
846.870178,313
846.988098,316
847.106079,336
847.22406,303
847.34198,306
847.4599,314
847.577881,310
847.695801,320
847.813782,315
847.931641,326
848.049561,304
848.167603,318
848.285461,321
848.403381,309
848.521362,323
848.639221,324
848.75708,315
848.875,318
848.99292,312
849.110901,328
849.22876,316
849.34668,328
849.464539,323
849.582458,321
849.700317,314
849.818176,319
849.936096,323
850.053955,319
850.171875,322
850.289673,323
850.407593,311
850.525452,315
850.643311,326
850.761169,318
850.878967,320
850.996887,312
851.114746,318
851.232544,313
851.350403,311
851.468262,326
851.58606,316
851.703979,332
851.821777,320
851.939636,322
852.057434,324
852.175232,322
852.293091,308
852.410889,326
852.528687,316
852.646545,315
852.764343,323
852.88208,321
852.999939,332
853.117676,313
853.235535,328
853.353271,317
853.471069,312
853.588928,311
853.706604,317
853.824402,328
853.9422,315
854.059998,319
854.177734,325
854.295532,301
854.413269,314
854.531006,322
854.648804,321
854.766541,314
854.884277,302
855.002014,323
855.119751,308
855.237549,314
855.355225,314
855.473022,317
855.590698,323
855.708435,320
855.826172,319
855.943848,309
856.061646,312
856.179321,326
856.296997,319
856.414795,317
856.53241,318
856.650085,325
856.767822,315
856.885559,328
857.003174,320
857.120911,329
857.238586,320
857.356201,324
857.473938,321
857.591614,332
857.709351,330
857.826965,304
857.944641,324
858.062317,332
858.179993,316
858.297668,315
858.415283,317
858.532959,335
858.650574,342
858.768188,313
858.885803,336
859.003479,317
859.121094,325
859.23877,320
859.356384,315
859.473999,319
859.591675,318
859.709229,327
859.826843,316
859.944458,311
860.062012,322
860.179626,316
860.297302,326
860.414856,333
860.532471,323
860.650024,328
860.767639,317
860.885193,324
861.002808,322
861.120361,325
861.237976,311
861.35553,315
861.473022,306
861.590698,317
861.708191,328
861.825745,314
861.943298,308
862.060852,322
862.178406,313
862.295959,323
862.413513,327
862.531006,317
862.64856,322
862.766113,327
862.883667,311
863.00116,325
863.118713,316
863.236206,324
863.353699,316
863.471252,310
863.588745,320
863.706177,316
863.82373,330
863.941162,324
864.058716,317
864.176208,323
864.29364,316
864.411194,317
864.528687,328
864.646118,319
864.763611,322
864.881042,316
864.998535,320
865.116028,313
865.233459,324
865.350891,321
865.468384,302
865.585754,326
865.703308,322
865.820679,309
865.938171,309
866.055542,334
866.173035,319
866.290466,319
866.407837,303
866.52533,318
866.6427,306
866.760071,321
866.877563,329
866.994934,315
867.112305,315
867.229736,307
867.347107,317
867.464539,325
867.58197,324
867.699341,324
867.81665,322
867.934082,320
868.051453,320
868.168823,307
868.286194,311
868.403564,325
868.520935,312
868.638306,331
868.755676,319
868.872986,310
868.990295,312
869.107727,320
869.225037,327
869.342346,323
869.459717,306
869.577026,330
869.694336,314
869.811707,312
869.929016,310
870.046326,321
870.163635,329
870.280945,323
870.398254,312
870.515564,309
870.632812,332
870.750183,313
870.867432,301
870.984741,331
871.102051,315
871.219299,322
871.336609,314
871.453918,324
871.571106,314
871.688416,315
871.805664,324
871.922852,321
872.040222,316
872.157471,325
872.274719,308
872.391968,321
872.509155,321
872.626465,326
872.743652,319
872.860962,325
872.978149,323
873.095337,333
873.212646,324
873.329834,319
873.44696,307
873.564209,314
873.681396,303
873.798645,325
873.915894,326
874.03302,330
874.150208,326
874.267456,323
874.384583,318
874.501831,315
874.618958,309
874.736145,327
874.853333,307
874.970459,329
875.087646,333
875.204834,313
875.32196,315
875.439148,313
875.556274,314
875.673401,321
875.790527,307
875.907715,319
876.024841,310
876.141968,330
876.259094,315
876.376282,311
876.493347,319
876.610474,320
876.7276,324
876.844727,329
876.961853,317
877.078918,318
877.195984,313
877.313171,332
877.430237,311
877.547302,314
877.664368,325
877.781433,319
877.898499,316
878.015625,319
878.13269,322
878.249695,328
878.366821,317
878.483887,317
878.600952,317
878.717957,328
878.834961,314
878.952087,326
879.069092,313
879.186157,322
879.303162,318
879.420227,325
879.537231,308
879.654236,320
879.77124,310
879.888306,314
880.005249,305
880.122314,310
880.239319,288
880.356323,307
880.473328,299
880.590271,325
880.707275,306
880.824341,318
880.941284,314
881.058228,320
881.175232,308
881.292236,327
881.40918,331
881.526123,319
881.643066,320
881.760071,315
881.877014,309
881.993958,319
882.11084,321
882.227783,312
882.344727,308
882.46167,318
882.578613,313
882.695618,330
882.812439,309
882.929382,326
883.046326,304
883.163208,326
883.280151,321
883.397034,308
883.513916,316
883.630798,326
883.747742,320
883.864563,329
883.981506,319
884.098389,324
884.21521,322
884.332153,321
884.448975,324
884.565796,324
884.682678,328
884.7995,322
884.916443,320
885.033264,329
885.150085,329
885.266968,325
885.383789,319
885.500671,326
885.617493,322
885.734314,325
885.851196,310
885.967896,320
886.084717,317
886.201599,322
886.318359,323
886.435181,340
886.552002,314
886.668762,329
886.785645,313
886.902344,342
887.019165,316
887.135925,328
887.252747,325
887.369446,318
887.486267,321
887.603027,319
887.719788,317
887.836548,314
887.953247,326
888.070068,321
888.186829,323
888.303528,325
888.420288,317
888.536987,318
888.653687,310
888.770447,325
888.887146,306
889.003967,326
889.120667,328
889.237305,315
889.354065,312
889.470703,316
889.587463,310
889.704163,320
889.820862,315
889.937561,322
890.054199,328
890.170837,334
890.287598,303
890.404236,311
890.520874,312
890.637634,331
890.754211,322
890.87085,317
890.987549,321
891.104187,330
891.220886,321
891.337463,330
891.454102,325
891.57074,322
891.687378,307
891.804077,317
891.920654,314
892.037231,318
892.15387,311
892.270447,317
892.387085,321
892.503723,315
892.6203,311
892.736877,312
892.853516,313
892.970032,325
893.08667,312
893.203186,324
893.319763,324
893.43634,316
893.552917,319
893.669556,311
893.786011,331
893.902588,313
894.019165,315
894.135681,324
894.252197,311
894.368835,329
894.485291,307
894.601868,327
894.718384,310
894.8349,317
894.951355,323
895.067932,325
895.184448,320
895.300964,317
895.417419,314
895.533936,330
895.650452,302
895.766907,315
895.883423,311
895.999878,318
896.116333,320
896.232849,314
896.349304,316
896.465759,330
896.582214,327
896.698669,323
896.815125,319
896.931641,317
897.048035,301
897.164551,311
897.280884,310
897.397339,318
897.513794,310
897.630249,314
897.746582,316
897.863098,313
897.979431,315
898.095886,317
898.212341,309
898.328674,320
898.445129,314
898.561462,323
898.677795,317
898.794312,320
898.910645,314
899.026978,319
899.143433,321
899.259766,312
899.37616,316
899.492493,320
899.608765,308
899.725159,308
899.841553,321
899.957947,322
900.07428,321
900.190552,326
900.306946,298
900.423157,328
900.53949,314
900.655884,331
900.772156,321
900.888489,332
901.004822,317
901.121033,326
901.237366,322
901.353699,317
901.46991,317
901.586304,329
901.702515,324
901.818787,321
901.93512,321
902.051331,314
902.167603,310
902.283875,324
902.400085,322
902.516418,338
902.632629,328
902.74884,313
902.865112,322
902.981384,324
903.097595,318
903.213867,329
903.330017,311
903.446289,311
903.5625,318
903.67865,317
903.794922,327
903.911072,317
904.027344,313
904.143494,325
904.259705,327
904.375916,323
904.492065,313
904.608215,319
904.724426,314
904.840576,311
904.956726,328
905.072876,310
905.189087,309
905.305176,321
905.421387,311
905.537537,314
905.653687,322
905.769775,324
905.885925,313
906.002014,309
906.118164,306
906.234314,318
906.350403,314
906.466492,326
906.582642,315
906.69873,314
906.814758,315
906.930908,309
907.046936,325
907.163086,329
907.279175,318
907.395264,320
907.511353,308
907.62738,322
907.743408,330
907.859497,307
907.975525,303
908.091553,322
908.207703,311
908.32373,303
908.439758,304
908.555786,331
908.671814,311
908.787842,311
908.90387,313
909.019775,329
909.135864,306
909.251892,306
909.367859,319
909.483826,321
909.599854,314
909.715881,315
909.831848,314
909.947815,326
910.063782,322
910.179749,312
910.295776,329
910.411743,314
910.527649,310
910.643616,316
910.759583,312
910.875488,310
910.991455,315
911.107361,326
911.223267,306
911.339294,319
911.4552,319
911.571106,318
911.687073,314
911.802979,317
911.918823,316
912.034729,333
912.150635,321
912.266602,323
912.382446,309
912.498352,310
912.614197,309
912.730103,322
912.846008,313
792.44574,339
792.56488,377
792.68396,414
792.80304,396
792.92218,345
793.041199,335
793.160339,336
793.279419,341
793.398499,347
793.517578,324
793.636658,342
793.755737,351
793.874817,356
793.993896,356
794.112976,358
794.232056,345
794.351074,336
794.470215,344
794.589233,347
794.708313,334
794.827393,347
794.946411,343
795.065552,338
795.18457,334
795.303589,344
795.422668,329
795.541687,330
795.660767,332
795.779846,342
795.898865,330
796.017883,321
796.136963,344
796.255981,337
796.375061,343
796.49408,335
796.613037,326
796.732117,333
796.851135,339
796.970154,339
797.089233,343
797.208191,345
797.327271,327
797.446228,339
797.565186,336
797.684265,344
797.803223,327
797.922241,332
798.04126,321
798.160278,322
798.279297,315
798.398315,338
798.517273,333
798.636292,323
798.75531,327
798.874268,326
798.993286,328
799.112244,335
799.231323,331
799.350281,332
799.469238,341
799.588257,332
799.707153,335
799.826111,319
799.945129,339
800.064087,331
800.183044,336
800.302063,331
800.421021,346
800.539978,326
800.658936,330
800.777893,327
800.896912,326
801.015747,334
801.134705,321
801.253723,336
801.37262,329
801.491638,340
801.610535,327
801.729492,321
801.84845,329
801.967407,336
802.086243,320
802.205261,331
802.324158,330
802.443115,338
802.562073,322
802.680969,326
802.799927,339
802.918762,328
803.037659,327
803.156677,330
803.275574,331
803.39447,319
803.513428,324
803.632263,327
803.751221,321
803.870117,313
803.989014,326
804.107971,329
804.226746,329
804.345642,342
804.4646,327
804.583496,319
804.702393,311
804.821228,328
804.940125,325
805.059021,328
805.177917,322
805.296814,318
805.415649,344
805.534546,332
805.653442,321
805.772278,332
805.891113,322
806.01001,331
806.128906,338
806.247742,322
806.366577,329
806.485413,325
806.604309,331
806.723145,320
806.84198,326
806.960876,327
807.079712,326
807.198486,323
807.317383,332
807.436218,331
807.554993,336
807.673889,324
807.792725,319
807.91156,335
808.030396,319
808.14917,330
808.268005,333
808.386841,330
808.505676,337
808.624451,326
808.743286,319
808.862122,323
808.980896,348
809.099731,319
809.218506,331
809.337341,325
809.456116,328
809.57489,334
809.693726,340
809.8125,325
809.931274,333
810.050049,308
810.168884,327
810.287659,325
810.406372,326
810.525269,330
810.643982,337
810.762756,318
810.881531,331
811.000305,321
811.11908,323
811.237854,329
811.356567,337
811.475403,322
811.594116,344
811.71283,324
811.831604,330
811.950378,331
812.069153,331
812.187927,318
812.30658,321
812.425415,315
812.544128,314
812.662781,333
812.781616,342
812.900269,326
813.019043,325
813.137756,333
813.256531,335
813.375244,321
813.493896,330
813.612671,334
813.731384,328
813.850037,327
813.96875,327
814.087524,325
814.206238,320
814.324951,320
814.443604,333
814.562256,327
814.68103,340
814.799683,326
814.918335,340
815.037109,316
815.155762,328
815.274475,313
815.393188,333
815.511841,327
815.630554,334
815.749146,329
815.867859,325
815.986572,329
816.105164,326
816.223877,329
816.342529,315
816.461182,334
816.579895,314
816.698486,334
816.817139,309
816.935791,324
817.054504,323
817.173096,334
817.291748,320
817.4104,331
817.529053,328
817.647644,326
817.766235,318
817.884949,323
818.00354,320
818.122192,318
818.240845,325
818.359436,307
818.478088,314
818.59668,317
818.715271,318
818.833923,315
818.952515,323
819.071106,313
819.189758,327
819.30835,317
819.426941,326
819.545532,313
819.664124,319
819.782715,315
819.901306,338
820.019897,314
820.138489,319
820.25708,305
820.375671,324
820.494202,333
820.612732,325
820.731384,324
820.849915,327
820.968506,321
821.087097,320
821.205627,321
821.324158,329
821.442749,306
821.561279,324
821.679871,327
821.798401,329
821.916931,319
822.035461,320
822.154053,334
822.272583,318
822.391174,311
822.509583,330
822.628174,319
822.746704,329
822.865234,310
822.983765,318
823.102295,327
823.220825,313
823.339294,315
823.457825,319
823.576355,319
823.694824,320
823.813354,314
823.931885,312
824.050354,314
824.168884,307
824.287354,320
824.405823,320
824.524353,328
824.642822,319
824.761353,319
824.879822,326
824.998291,317
825.116699,317
825.235291,323
825.353699,331
825.472168,326
825.590637,330
825.709106,306
825.827576,310
825.946045,315
826.064453,327
826.182983,315
826.301392,325
826.4198,334
826.53833,301
826.656738,327
826.775208,313
826.893677,339
827.012024,325
827.130493,319
827.248962,315
827.36731,342
827.485779,316
827.604248,315
827.722595,324
827.841064,310
827.959412,315
828.077942,328
828.196289,313
828.314636,324
828.433105,316
828.551514,324
828.669861,331
828.78833,317
828.906677,321
829.025085,316
829.143433,323
829.261841,312
829.38031,317
829.498657,313
829.617004,323
829.735413,323
829.85376,315
829.972107,313
830.090515,319
830.208862,313
830.327209,326
830.445557,331
830.563904,329
830.682312,321
830.800659,316
830.919006,317
831.037354,333
831.155701,323
831.274048,324
831.392395,308
831.51062,316
831.629028,318
831.747314,315
831.865662,331
831.984009,321
832.102356,317
832.220642,318
832.338928,329
832.457275,318
832.575623,317
832.693909,320
832.812134,321
832.930481,314
833.048828,315
833.167114,322
833.2854,317
833.403687,322
833.521973,327
833.640259,316
833.758545,313
833.876831,324
833.995056,311
834.113281,312
834.231628,313
834.349915,321
834.468201,319
834.586426,317
834.704651,313
834.822998,300
834.941162,320
835.059448,334
835.177673,312
835.295959,307
835.414246,327
835.53241,321
835.650635,319
835.768921,312
835.887146,325
836.005371,325
836.123596,314
836.241821,332
836.360046,329
836.478271,323
836.596497,310
836.714722,320
836.832886,327
836.95105,316
837.069336,320
837.1875,327
837.305725,318
837.423889,320
837.542053,308
837.660339,319
837.778503,308
837.896667,323
838.014832,327
838.132996,327
838.25116,304
838.369385,316
838.487488,322
838.605713,326
838.723877,317
838.84198,327
838.960205,318
839.078308,326
839.196472,333
839.314636,312
839.4328,323
839.550964,316
839.669067,321
839.787231,316
839.905396,328
840.023499,326
840.141602,315
840.259766,325
840.377869,318
840.495972,326
840.614136,313
840.732239,330
840.850342,309
840.968445,320
841.086548,321
841.204651,325
841.322754,308
841.440918,321
841.55896,321
841.677002,313
841.795166,331
841.913208,324
842.031311,317
842.149353,328
842.267456,325
842.385498,317
842.503601,315
842.621643,326
842.739746,325
842.857788,327
842.97583,314
843.093933,326
843.211975,315
843.330017,322
843.44812,311
843.566101,312
843.684204,336
843.802246,321
843.920227,321
844.038269,322
844.156311,319
844.274292,326
844.392395,305
844.510376,333
844.628357,324
844.74646,313
844.864441,332
844.982422,325
845.100403,319
845.218384,329
845.336426,323
845.454468,317
845.572449,319
845.69043,317
845.808411,325
845.926453,301
846.044373,328
846.162354,320
846.280396,316
846.398315,330
846.516296,326
846.634216,326
846.752197,317
846.870178,319
846.988098,313
847.106079,324
847.22406,318
847.34198,327
847.4599,320
847.577881,319
847.695801,338
847.813782,328
847.931641,311
848.049561,322
848.167603,305
848.285461,318
848.403381,311
848.521362,317
848.639221,328
848.75708,321
848.875,321
848.99292,313
849.110901,317
849.22876,327
849.34668,333
849.464539,313
849.582458,331
849.700317,330
849.818176,323
849.936096,314
850.053955,327
850.171875,320
850.289673,313
850.407593,312
850.525452,309
850.643311,310
850.761169,313
850.878967,322
850.996887,328
851.114746,321
851.232544,322
851.350403,328
851.468262,316
851.58606,313
851.703979,317
851.821777,325
851.939636,314
852.057434,326
852.175232,311
852.293091,316
852.410889,315
852.528687,335
852.646545,315
852.764343,320
852.88208,337
852.999939,310
853.117676,312
853.235535,317
853.353271,336
853.471069,329
853.588928,322
853.706604,323
853.824402,331
853.9422,324
854.059998,328
854.177734,315
854.295532,298
854.413269,328
854.531006,340
854.648804,321
854.766541,317
854.884277,316
855.002014,328
855.119751,323
855.237549,330
855.355225,324
855.473022,320
855.590698,317
855.708435,322
855.826172,319
855.943848,299
856.061646,305
856.179321,315
856.296997,323
856.414795,317
856.53241,314
856.650085,307
856.767822,330
856.885559,324
857.003174,316
857.120911,328
857.238586,341
857.356201,320
857.473938,313
857.591614,316
857.709351,322
857.826965,316
857.944641,330
858.062317,327
858.179993,325
858.297668,322
858.415283,320
858.532959,329
858.650574,330
858.768188,327
858.885803,316
859.003479,328
859.121094,333
859.23877,330
859.356384,325
859.473999,313
859.591675,328
859.709229,313
859.826843,326
859.944458,326
860.062012,323
860.179626,330
860.297302,317
860.414856,312
860.532471,328
860.650024,303
860.767639,317
860.885193,314
861.002808,310
861.120361,330
861.237976,315
861.35553,325
861.473022,313
861.590698,321
861.708191,319
861.825745,318
861.943298,322
862.060852,316
862.178406,317
862.295959,312
862.413513,318
862.531006,333
862.64856,322
862.766113,321
862.883667,314
863.00116,322
863.118713,320
863.236206,311
863.353699,319
863.471252,301
863.588745,324
863.706177,314
863.82373,311
863.941162,329
864.058716,312
864.176208,317
864.29364,322
864.411194,322
864.528687,330
864.646118,311
864.763611,318
864.881042,317
864.998535,316
865.116028,317
865.233459,317
865.350891,312
865.468384,319
865.585754,330
865.703308,312
865.820679,324
865.938171,306
866.055542,330
866.173035,314
866.290466,327
866.407837,311
866.52533,313
866.6427,331
866.760071,303
866.877563,331
866.994934,321
867.112305,328
867.229736,318
867.347107,310
867.464539,316
867.58197,326
867.699341,306
867.81665,325
867.934082,316
868.051453,329
868.168823,326
868.286194,321
868.403564,325
868.520935,304
868.638306,312
868.755676,325
868.872986,312
868.990295,314
869.107727,325
869.225037,325
869.342346,311
869.459717,319
869.577026,322
869.694336,322
869.811707,325
869.929016,309
870.046326,306
870.163635,317
870.280945,323
870.398254,325
870.515564,320
870.632812,330
870.750183,318
870.867432,325
870.984741,316
871.102051,326
871.219299,315
871.336609,324
871.453918,316
871.571106,323
871.688416,314
871.805664,321
871.922852,320
872.040222,324
872.157471,327
872.274719,323
872.391968,323
872.509155,338
872.626465,320
872.743652,314
872.860962,328
872.978149,317
873.095337,319
873.212646,322
873.329834,331
873.44696,328
873.564209,317
873.681396,335
873.798645,305
873.915894,334
874.03302,322
874.150208,326
874.267456,320
874.384583,329
874.501831,320
874.618958,316
874.736145,321
874.853333,335
874.970459,323
875.087646,336
875.204834,326
875.32196,329
875.439148,328
875.556274,302
875.673401,320
875.790527,328
875.907715,319
876.024841,313
876.141968,326
876.259094,318
876.376282,314
876.493347,318
876.610474,346
876.7276,325
876.844727,322
876.961853,330
877.078918,313
877.195984,325
877.313171,315
877.430237,329
877.547302,320
877.664368,319
877.781433,323
877.898499,314
878.015625,325
878.13269,326
878.249695,302
878.366821,320
878.483887,325
878.600952,325
878.717957,311
878.834961,318
878.952087,311
879.069092,319
879.186157,323
879.303162,320
879.420227,317
879.537231,321
879.654236,309
879.77124,311
879.888306,325
880.005249,315
880.122314,323
880.239319,320
880.356323,328
880.473328,322
880.590271,303
880.707275,338
880.824341,318
880.941284,327
881.058228,309
881.175232,313
881.292236,321
881.40918,318
881.526123,327
881.643066,314
881.760071,312
881.877014,320
881.993958,319
882.11084,323
882.227783,319
882.344727,315
882.46167,309
882.578613,319
882.695618,323
882.812439,316
882.929382,324
883.046326,320
883.163208,316
883.280151,320
883.397034,318
883.513916,315
883.630798,323
883.747742,324
883.864563,320
883.981506,324
884.098389,317
884.21521,319
884.332153,318
884.448975,321
884.565796,326
884.682678,327
884.7995,332
884.916443,319
885.033264,318
885.150085,319
885.266968,327
885.383789,316
885.500671,316
885.617493,329
885.734314,318
885.851196,323
885.967896,339
886.084717,339
886.201599,324
886.318359,322
886.435181,324
886.552002,330
886.668762,325
886.785645,311
886.902344,325
887.019165,317
887.135925,333
887.252747,321
887.369446,321
887.486267,310
887.603027,321
887.719788,315
887.836548,313
887.953247,328
888.070068,323
888.186829,323
888.303528,321
888.420288,334
888.536987,322
888.653687,312
888.770447,312
888.887146,330
889.003967,316
889.120667,316
889.237305,320
889.354065,320
889.470703,315
889.587463,313
889.704163,322
889.820862,311
889.937561,317
890.054199,306
890.170837,309
890.287598,330
890.404236,316
890.520874,316
890.637634,324
890.754211,327
890.87085,316
890.987549,307
891.104187,321
891.220886,327
891.337463,309
891.454102,320
891.57074,318
891.687378,314
891.804077,316
891.920654,327
892.037231,322
892.15387,321
892.270447,317
892.387085,330
892.503723,311
892.6203,326
892.736877,325
892.853516,320
892.970032,324
893.08667,316
893.203186,315
893.319763,321
893.43634,319
893.552917,326
893.669556,310
893.786011,318
893.902588,324
894.019165,324
894.135681,303
894.252197,314
894.368835,325
894.485291,310
894.601868,317
894.718384,308
894.8349,317
894.951355,324
895.067932,320
895.184448,332
895.300964,324
895.417419,338
895.533936,324
895.650452,319
895.766907,312
895.883423,324
895.999878,302
896.116333,329
896.232849,309
896.349304,323
896.465759,319
896.582214,312
896.698669,326
896.815125,317
896.931641,320
897.048035,315
897.164551,312
897.280884,324
897.397339,317
897.513794,328
897.630249,320
897.746582,312
897.863098,314
897.979431,316
898.095886,315
898.212341,315
898.328674,320
898.445129,316
898.561462,320
898.677795,326
898.794312,318
898.910645,307
899.026978,322
899.143433,325
899.259766,321
899.37616,321
899.492493,313
899.608765,318
899.725159,318
899.841553,322
899.957947,313
900.07428,329
900.190552,328
900.306946,321
900.423157,316
900.53949,317
900.655884,321
900.772156,327
900.888489,323
901.004822,318
901.121033,321
901.237366,332
901.353699,314
901.46991,337
901.586304,307
901.702515,322
901.818787,320
901.93512,324
902.051331,328
902.167603,326
902.283875,324
902.400085,327
902.516418,319
902.632629,320
902.74884,325
902.865112,330
902.981384,329
903.097595,340
903.213867,310
903.330017,328
903.446289,324
903.5625,314
903.67865,329
903.794922,328
903.911072,320
904.027344,314
904.143494,327
904.259705,327
904.375916,334
904.492065,319
904.608215,329
904.724426,322
904.840576,319
904.956726,316
905.072876,317
905.189087,325
905.305176,316
905.421387,317
905.537537,320
905.653687,327
905.769775,319
905.885925,316
906.002014,324
906.118164,318
906.234314,319
906.350403,328
906.466492,310
906.582642,315
906.69873,322
906.814758,316
906.930908,314
907.046936,319
907.163086,313
907.279175,318
907.395264,313
907.511353,315
907.62738,315
907.743408,314
907.859497,326
907.975525,320
908.091553,318
908.207703,313
908.32373,316
908.439758,325
908.555786,327
908.671814,326
908.787842,327
908.90387,328
909.019775,316
909.135864,322
909.251892,321
909.367859,325
909.483826,310
909.599854,314
909.715881,315
909.831848,319
909.947815,301
910.063782,322
910.179749,322
910.295776,312
910.411743,313
910.527649,345
910.643616,315
910.759583,326
910.875488,306
910.991455,327
911.107361,327
911.223267,318
911.339294,318
911.4552,318
911.571106,326
911.687073,327
911.802979,319
911.918823,320
912.034729,303
912.150635,310
912.266602,314
912.382446,320
912.498352,324
912.614197,327
912.730103,325
912.846008,324
792.44574,331
792.56488,383
792.68396,429
792.80304,405
792.92218,362
793.041199,340
793.160339,346
793.279419,375
793.398499,330
793.517578,324
793.636658,333
793.755737,349
793.874817,358
793.993896,363
794.112976,348
794.232056,345
794.351074,333
794.470215,357
794.589233,355
794.708313,340
794.827393,324
794.946411,344
795.065552,341
795.18457,334
795.303589,340
795.422668,328
795.541687,349
795.660767,336
795.779846,335
795.898865,337
796.017883,346
796.136963,341
796.255981,344
796.375061,338
796.49408,343
796.613037,327
796.732117,335
796.851135,347
796.970154,337
797.089233,339
797.208191,322
797.327271,342
797.446228,336
797.565186,323
797.684265,323
797.803223,332
797.922241,330
798.04126,326
798.160278,336
798.279297,332
798.398315,329
798.517273,351
798.636292,317
798.75531,341
798.874268,329
798.993286,340
799.112244,324
799.231323,326
799.350281,337
799.469238,338
799.588257,329
799.707153,330
799.826111,334
799.945129,322
800.064087,321
800.183044,337
800.302063,331
800.421021,337
800.539978,324
800.658936,331
800.777893,328
800.896912,330
801.015747,332
801.134705,334
801.253723,339
801.37262,331
801.491638,323
801.610535,316
801.729492,333
801.84845,331
801.967407,324
802.086243,329
802.205261,323
802.324158,335
802.443115,337
802.562073,325
802.680969,341
802.799927,344
802.918762,325
803.037659,326
803.156677,316
803.275574,324
803.39447,339
803.513428,312
803.632263,325
803.751221,323
803.870117,321
803.989014,326
804.107971,330
804.226746,317
804.345642,333
804.4646,340
804.583496,330
804.702393,334
804.821228,321
804.940125,327
805.059021,328
805.177917,320
805.296814,318
805.415649,328
805.534546,314
805.653442,351
805.772278,309
805.891113,335
806.01001,327
806.128906,323
806.247742,331
806.366577,336
806.485413,322
806.604309,331
806.723145,331
806.84198,333
806.960876,318
807.079712,319
807.198486,329
807.317383,325
807.436218,327
807.554993,335
807.673889,311
807.792725,327
807.91156,326
808.030396,324
808.14917,333
808.268005,329
808.386841,319
808.505676,326
808.624451,325
808.743286,324
808.862122,328
808.980896,319
809.099731,318
809.218506,333
809.337341,330
809.456116,313
809.57489,323
809.693726,308
809.8125,319
809.931274,325
810.050049,326
810.168884,334
810.287659,328
810.406372,332
810.525269,323
810.643982,332
810.762756,330
810.881531,333
811.000305,318
811.11908,325
811.237854,320
811.356567,328
811.475403,305
811.594116,337
811.71283,321
811.831604,329
811.950378,339
812.069153,316
812.187927,322
812.30658,323
812.425415,325
812.544128,326
812.662781,324
812.781616,346
812.900269,327
813.019043,339
813.137756,326
813.256531,323
813.375244,322
813.493896,324
813.612671,332
813.731384,330
813.850037,328
813.96875,319
814.087524,319
814.206238,321
814.324951,331
814.443604,323
814.562256,324
814.68103,317
814.799683,332
814.918335,319
815.037109,327
815.155762,340
815.274475,328
815.393188,330
815.511841,320
815.630554,317
815.749146,322
815.867859,328
815.986572,331
816.105164,329
816.223877,315
816.342529,332
816.461182,327
816.579895,317
816.698486,342
816.817139,328
816.935791,335
817.054504,337
817.173096,316
817.291748,324
817.4104,324
817.529053,318
817.647644,343
817.766235,315
817.884949,304
818.00354,335
818.122192,332
818.240845,317
818.359436,331
818.478088,327
818.59668,325
818.715271,322
818.833923,327
818.952515,325
819.071106,321
819.189758,324
819.30835,343
819.426941,320
819.545532,310
819.664124,327
819.782715,335
819.901306,320
820.019897,308
820.138489,329
820.25708,318
820.375671,332
820.494202,337
820.612732,320
820.731384,313
820.849915,309
820.968506,317
821.087097,309
821.205627,310
821.324158,316
821.442749,320
821.561279,322
821.679871,317
821.798401,315
821.916931,320
822.035461,323
822.154053,327
822.272583,323
822.391174,320
822.509583,323
822.628174,315
822.746704,331
822.865234,317
822.983765,310
823.102295,311
823.220825,330
823.339294,319
823.457825,325
823.576355,321
823.694824,317
823.813354,316
823.931885,327
824.050354,326
824.168884,320
824.287354,304
824.405823,322
824.524353,317
824.642822,319
824.761353,316
824.879822,313
824.998291,317
825.116699,325
825.235291,327
825.353699,318
825.472168,329
825.590637,316
825.709106,315
825.827576,313
825.946045,324
826.064453,330
826.182983,318
826.301392,318
826.4198,316
826.53833,316
826.656738,327
826.775208,333
826.893677,314
827.012024,325
827.130493,312
827.248962,330
827.36731,316
827.485779,330
827.604248,314
827.722595,325
827.841064,318
827.959412,323
828.077942,325
828.196289,319
828.314636,312
828.433105,328
828.551514,321
828.669861,319
828.78833,327
828.906677,318
829.025085,312
829.143433,321
829.261841,311
829.38031,314
829.498657,318
829.617004,318
829.735413,315
829.85376,316
829.972107,322
830.090515,319
830.208862,321
830.327209,314
830.445557,316
830.563904,321
830.682312,321
830.800659,311
830.919006,320
831.037354,313
831.155701,314
831.274048,318
831.392395,314
831.51062,326
831.629028,322
831.747314,326
831.865662,300
831.984009,317
832.102356,327
832.220642,322
832.338928,317
832.457275,317
832.575623,315
832.693909,307
832.812134,317
832.930481,329
833.048828,315
833.167114,329
833.2854,330
833.403687,311
833.521973,330
833.640259,323
833.758545,318
833.876831,321
833.995056,303
834.113281,319
834.231628,334
834.349915,315
834.468201,329
834.586426,330
834.704651,328
834.822998,320
834.941162,318
835.059448,314
835.177673,310
835.295959,319
835.414246,326
835.53241,312
835.650635,322
835.768921,317
835.887146,324
836.005371,323
836.123596,317
836.241821,328
836.360046,312
836.478271,309
836.596497,324
836.714722,315
836.832886,320
836.95105,325
837.069336,325
837.1875,316
837.305725,324
837.423889,316
837.542053,335
837.660339,327
837.778503,319
837.896667,309
838.014832,331
838.132996,310
838.25116,328
838.369385,325
838.487488,310
838.605713,303
838.723877,314
838.84198,336
838.960205,329
839.078308,310
839.196472,321
839.314636,315
839.4328,321
839.550964,334
839.669067,321
839.787231,327
839.905396,327
840.023499,319
840.141602,314
840.259766,319
840.377869,339
840.495972,310
840.614136,336
840.732239,313
840.850342,326
840.968445,310
841.086548,321
841.204651,315
841.322754,318
841.440918,314
841.55896,328
841.677002,316
841.795166,331
841.913208,328
842.031311,313
842.149353,336
842.267456,314
842.385498,336
842.503601,325
842.621643,316
842.739746,318
842.857788,324
842.97583,324
843.093933,318
843.211975,334
843.330017,315
843.44812,322
843.566101,309
843.684204,323
843.802246,334
843.920227,322
844.038269,319
844.156311,317
844.274292,312
844.392395,321
844.510376,324
844.628357,311
844.74646,331
844.864441,316
844.982422,322
845.100403,323
845.218384,315
845.336426,328
845.454468,313
845.572449,320
845.69043,327
845.808411,322
845.926453,331
846.044373,317
846.162354,313
846.280396,319
846.398315,327
846.516296,313
846.634216,326
846.752197,317
846.870178,328
846.988098,318
847.106079,317
847.22406,322
847.34198,314
847.4599,323
847.577881,323
847.695801,318
847.813782,342
847.931641,317
848.049561,320
848.167603,318
848.285461,335
848.403381,311
848.521362,330
848.639221,328
848.75708,311
848.875,317
848.99292,326
849.110901,318
849.22876,318
849.34668,323
849.464539,344
849.582458,317
849.700317,322
849.818176,335
849.936096,308
850.053955,327
850.171875,329
850.289673,332
850.407593,329
850.525452,317
850.643311,330
850.761169,329
850.878967,330
850.996887,304
851.114746,316
851.232544,318
851.350403,324
851.468262,316
851.58606,340
851.703979,319
851.821777,316
851.939636,299
852.057434,323
852.175232,325
852.293091,323
852.410889,317
852.528687,325
852.646545,319
852.764343,330
852.88208,319
852.999939,324
853.117676,331
853.235535,310
853.353271,307
853.471069,324
853.588928,325
853.706604,314
853.824402,326
853.9422,326
854.059998,312
854.177734,338
854.295532,308
854.413269,325
854.531006,317
854.648804,315
854.766541,322
854.884277,318
855.002014,320
855.119751,323
855.237549,327
855.355225,319
855.473022,325
855.590698,318
855.708435,323
855.826172,326
855.943848,316
856.061646,330
856.179321,330
856.296997,315
856.414795,312
856.53241,334
856.650085,324
856.767822,316
856.885559,324
857.003174,323
857.120911,314
857.238586,330
857.356201,315
857.473938,318
857.591614,325
857.709351,343
857.826965,327
857.944641,312
858.062317,308
858.179993,325
858.297668,336
858.415283,324
858.532959,321
858.650574,326
858.768188,311
858.885803,329
859.003479,320
859.121094,316
859.23877,326
859.356384,322
859.473999,319
859.591675,315
859.709229,324
859.826843,311
859.944458,318
860.062012,321
860.179626,322
860.297302,327
860.414856,325
860.532471,324
860.650024,305
860.767639,314
860.885193,317
861.002808,315
861.120361,313
861.237976,325
861.35553,327
861.473022,329
861.590698,306
861.708191,318
861.825745,323
861.943298,323
862.060852,317
862.178406,323
862.295959,313
862.413513,316
862.531006,320
862.64856,324
862.766113,317
862.883667,317
863.00116,316
863.118713,325
863.236206,320
863.353699,311
863.471252,320
863.588745,323
863.706177,323
863.82373,323
863.941162,320
864.058716,330
864.176208,327
864.29364,324
864.411194,318
864.528687,321
864.646118,313
864.763611,315
864.881042,324
864.998535,328
865.116028,344
865.233459,312
865.350891,313
865.468384,317
865.585754,312
865.703308,308
865.820679,322
865.938171,331
866.055542,319
866.173035,327
866.290466,318
866.407837,324
866.52533,319
866.6427,313
866.760071,317
866.877563,310
866.994934,326
867.112305,326
867.229736,323
867.347107,302
867.464539,311
867.58197,314
867.699341,317
867.81665,306
867.934082,334
868.051453,322
868.168823,328
868.286194,325
868.403564,323
868.520935,324
868.638306,312
868.755676,317
868.872986,329
868.990295,320
869.107727,306
869.225037,322
869.342346,318
869.459717,322
869.577026,333
869.694336,316
869.811707,317
869.929016,321
870.046326,327
870.163635,338
870.280945,321
870.398254,328
870.515564,320
870.632812,325
870.750183,319
870.867432,323
870.984741,334
871.102051,325
871.219299,325
871.336609,330
871.453918,314
871.571106,326
871.688416,329
871.805664,324
871.922852,320
872.040222,328
872.157471,311
872.274719,320
872.391968,331
872.509155,320
872.626465,333
872.743652,330
872.860962,324
872.978149,320
873.095337,325
873.212646,324
873.329834,319
873.44696,309
873.564209,325
873.681396,312
873.798645,321
873.915894,313
874.03302,322
874.150208,330
874.267456,328
874.384583,323
874.501831,328
874.618958,316
874.736145,315
874.853333,341
874.970459,325
875.087646,327
875.204834,327
875.32196,325
875.439148,333
875.556274,331
875.673401,326
875.790527,331
875.907715,311
876.024841,334
876.141968,315
876.259094,322
876.376282,323
876.493347,326
876.610474,320
876.7276,325
876.844727,312
876.961853,331
877.078918,317
877.195984,330
877.313171,309
877.430237,326
877.547302,316
877.664368,330
877.781433,303
877.898499,327
878.015625,309
878.13269,324
878.249695,317
878.366821,326
878.483887,316
878.600952,318
878.717957,314
878.834961,330
878.952087,314
879.069092,325
879.186157,321
879.303162,328
879.420227,324
879.537231,325
879.654236,315
879.77124,315
879.888306,332
880.005249,318
880.122314,329
880.239319,318
880.356323,312
880.473328,321
880.590271,319
880.707275,327
880.824341,305
880.941284,326
881.058228,327
881.175232,337
881.292236,317
881.40918,336
881.526123,329
881.643066,315
881.760071,326
881.877014,325
881.993958,325
882.11084,322
882.227783,296
882.344727,309
882.46167,298
882.578613,334
882.695618,320
882.812439,320
882.929382,321
883.046326,317
883.163208,316
883.280151,305
883.397034,320
883.513916,318
883.630798,309
883.747742,307
883.864563,313
883.981506,320
884.098389,322
884.21521,331
884.332153,324
884.448975,339
884.565796,322
884.682678,328
884.7995,322
884.916443,318
885.033264,328
885.150085,322
885.266968,316
885.383789,331
885.500671,315
885.617493,317
885.734314,342
885.851196,327
885.967896,329
886.084717,323
886.201599,316
886.318359,329
886.435181,315
886.552002,325
886.668762,334
886.785645,329
886.902344,329
887.019165,324
887.135925,317
887.252747,332
887.369446,329
887.486267,322
887.603027,318
887.719788,328
887.836548,323
887.953247,323
888.070068,325
888.186829,330
888.303528,317
888.420288,323
888.536987,314
888.653687,325
888.770447,309
888.887146,324
889.003967,307
889.120667,325
889.237305,317
889.354065,316
889.470703,314
889.587463,319
889.704163,333
889.820862,314
889.937561,313
890.054199,326
890.170837,322
890.287598,314
890.404236,314
890.520874,309
890.637634,315
890.754211,327
890.87085,320
890.987549,324
891.104187,322
891.220886,324
891.337463,320
891.454102,326
891.57074,318
891.687378,315
891.804077,331
891.920654,313
892.037231,308
892.15387,312
892.270447,329
892.387085,330
892.503723,318
892.6203,330
892.736877,319
892.853516,325
892.970032,319
893.08667,319
893.203186,326
893.319763,302
893.43634,316
893.552917,321
893.669556,333
893.786011,315
893.902588,310
894.019165,331
894.135681,310
894.252197,326
894.368835,322
894.485291,317
894.601868,341
894.718384,322
894.8349,311
894.951355,323
895.067932,311
895.184448,318
895.300964,320
895.417419,314
895.533936,315
895.650452,318
895.766907,313
895.883423,319
895.999878,321
896.116333,319
896.232849,313
896.349304,326
896.465759,321
896.582214,314
896.698669,314
896.815125,320
896.931641,315
897.048035,333
897.164551,316
897.280884,332
897.397339,320
897.513794,327
897.630249,320
897.746582,333
897.863098,310
897.979431,315
898.095886,301
898.212341,318
898.328674,313
898.445129,313
898.561462,317
898.677795,318
898.794312,322
898.910645,310
899.026978,315
899.143433,316
899.259766,322
899.37616,330
899.492493,318
899.608765,314
899.725159,309
899.841553,305
899.957947,318
900.07428,305
900.190552,307
900.306946,304
900.423157,314
900.53949,313
900.655884,309
900.772156,313
900.888489,332
901.004822,327
901.121033,314
901.237366,308
901.353699,328
901.46991,314
901.586304,328
901.702515,318
901.818787,323
901.93512,323
902.051331,307
902.167603,322
902.283875,325
902.400085,325
902.516418,323
902.632629,322
902.74884,328
902.865112,328
902.981384,315
903.097595,323
903.213867,321
903.330017,325
903.446289,319
903.5625,318
903.67865,331
903.794922,329
903.911072,315
904.027344,313
904.143494,318
904.259705,325
904.375916,312
904.492065,325
904.608215,314
904.724426,320
904.840576,319
904.956726,323
905.072876,306
905.189087,328
905.305176,321
905.421387,315
905.537537,322
905.653687,323
905.769775,318
905.885925,325
906.002014,310
906.118164,312
906.234314,320
906.350403,304
906.466492,314
906.582642,320
906.69873,333
906.814758,336
906.930908,317
907.046936,325
907.163086,325
907.279175,314
907.395264,329
907.511353,317
907.62738,319
907.743408,317
907.859497,313
907.975525,313
908.091553,321
908.207703,321
908.32373,322
908.439758,326
908.555786,323
908.671814,330
908.787842,316
908.90387,334
909.019775,309
909.135864,314
909.251892,312
909.367859,328
909.483826,314
909.599854,328
909.715881,314
909.831848,332
909.947815,300
910.063782,316
910.179749,321
910.295776,325
910.411743,316
910.527649,327
910.643616,320
910.759583,322
910.875488,322
910.991455,319
911.107361,325
911.223267,328
911.339294,319
911.4552,336
911.571106,319
911.687073,309
911.802979,311
911.918823,323
912.034729,307
912.150635,321
912.266602,322
912.382446,314
912.498352,321
912.614197,318
912.730103,320
912.846008,318
