792.44574,309
792.56488,346
792.68396,398
792.80304,363
792.92218,324
793.041199,309
793.160339,320
793.279419,322
793.398499,326
793.517578,301
793.636658,305
793.755737,329
793.874817,337
793.993896,334
794.112976,327
794.232056,335
794.351074,315
794.470215,328
794.589233,321
794.708313,311
794.827393,318
794.946411,316
795.065552,335
795.18457,320
795.303589,328
795.422668,323
795.541687,311
795.660767,313
795.779846,317
795.898865,339
796.017883,324
796.136963,319
796.255981,328
796.375061,316
796.49408,319
796.613037,320
796.732117,327
796.851135,325
796.970154,323
797.089233,322
797.208191,322
797.327271,334
797.446228,324
797.565186,317
797.684265,329
797.803223,318
797.922241,337
798.04126,322
798.160278,326
798.279297,311
798.398315,324
798.517273,307
798.636292,317
798.75531,317
798.874268,320
798.993286,325
799.112244,319
799.231323,317
799.350281,332
799.469238,322
799.588257,316
799.707153,319
799.826111,314
799.945129,318
800.064087,322
800.183044,324
800.302063,319
800.421021,319
800.539978,334
800.658936,312
800.777893,324
800.896912,317
801.015747,328
801.134705,324
801.253723,324
801.37262,325
801.491638,320
801.610535,328
801.729492,326
801.84845,326
801.967407,322
802.086243,322
802.205261,332
802.324158,310
802.443115,329
802.562073,309
802.680969,309
802.799927,324
802.918762,294
803.037659,321
803.156677,321
803.275574,337
803.39447,311
803.513428,328
803.632263,314
803.751221,306
803.870117,321
803.989014,332
804.107971,313
804.226746,325
804.345642,324
804.4646,319
804.583496,323
804.702393,318
804.821228,317
804.940125,326
805.059021,319
805.177917,314
805.296814,331
805.415649,314
805.534546,319
805.653442,325
805.772278,338
805.891113,311
806.01001,315
806.128906,329
806.247742,306
806.366577,316
806.485413,323
806.604309,312
806.723145,325
806.84198,304
806.960876,334
807.079712,315
807.198486,314
807.317383,313
807.436218,326
807.554993,326
807.673889,321
807.792725,311
807.91156,328
808.030396,307
808.14917,305
808.268005,309
808.386841,323
808.505676,322
808.624451,316
808.743286,318
808.862122,322
808.980896,317
809.099731,325
809.218506,310
809.337341,318
809.456116,322
809.57489,313
809.693726,317
809.8125,332
809.931274,322
810.050049,307
810.168884,318
810.287659,334
810.406372,323
810.525269,321
810.643982,316
810.762756,325
810.881531,328
811.000305,313
811.11908,321
811.237854,315
811.356567,311
811.475403,325
811.594116,316
811.71283,320
811.831604,320
811.950378,309
812.069153,313
812.187927,322
812.30658,323
812.425415,317
812.544128,308
812.662781,313
812.781616,299
812.900269,316
813.019043,327
813.137756,311
813.256531,323
813.375244,321
813.493896,329
813.612671,331
813.731384,308
813.850037,328
813.96875,312
814.087524,331
814.206238,308
814.324951,291
814.443604,319
814.562256,316
814.68103,318
814.799683,313
814.918335,314
815.037109,305
815.155762,322
815.274475,328
815.393188,305
815.511841,329
815.630554,327
815.749146,304
815.867859,318
815.986572,317
816.105164,324
816.223877,326
816.342529,318
816.461182,322
816.579895,308
816.698486,322
816.817139,327
816.935791,308
817.054504,326
817.173096,329
817.291748,314
817.4104,309
817.529053,321
817.647644,310
817.766235,317
817.884949,319
818.00354,303
818.122192,306
818.240845,314
818.359436,310
818.478088,326
818.59668,316
818.715271,321
818.833923,319
818.952515,318
819.071106,318
819.189758,308
819.30835,324
819.426941,317
819.545532,327
819.664124,319
819.782715,325
819.901306,309
820.019897,300
820.138489,318
820.25708,311
820.375671,316
820.494202,316
820.612732,310
820.731384,319
820.849915,306
820.968506,322
821.087097,307
821.205627,324
821.324158,313
821.442749,307
821.561279,315
821.679871,311
821.798401,320
821.916931,315
822.035461,311
822.154053,322
822.272583,312
822.391174,323
822.509583,306
822.628174,303
822.746704,326
822.865234,304
822.983765,307
823.102295,332
823.220825,307
823.339294,311
823.457825,320
823.576355,319
823.694824,319
823.813354,318
823.931885,321
824.050354,320
824.168884,313
824.287354,312
824.405823,321
824.524353,323
824.642822,308
824.761353,316
824.879822,317
824.998291,313
825.116699,322
825.235291,326
825.353699,331
825.472168,322
825.590637,317
825.709106,316
825.827576,313
825.946045,309
826.064453,313
826.182983,317
826.301392,310
826.4198,318
826.53833,316
826.656738,327
826.775208,328
826.893677,310
827.012024,324
827.130493,325
827.248962,318
827.36731,320
827.485779,314
827.604248,330
827.722595,316
827.841064,316
827.959412,303
828.077942,317
828.196289,319
828.314636,312
828.433105,314
828.551514,313
828.669861,315
828.78833,311
828.906677,313
829.025085,315
829.143433,323
829.261841,317
829.38031,319
829.498657,306
829.617004,314
829.735413,309
829.85376,322
829.972107,316
830.090515,315
830.208862,334
830.327209,301
830.445557,319
830.563904,312
830.682312,318
830.800659,293
830.919006,309
831.037354,317
831.155701,320
831.274048,328
831.392395,324
831.51062,313
831.629028,310
831.747314,311
831.865662,307
831.984009,294
832.102356,326
832.220642,312
832.338928,295
832.457275,314
832.575623,314
832.693909,299
832.812134,316
832.930481,314
833.048828,323
833.167114,322
833.2854,315
833.403687,319
833.521973,320
833.640259,324
833.758545,308
833.876831,310
833.995056,317
834.113281,322
834.231628,316
834.349915,319
834.468201,316
834.586426,314
834.704651,323
834.822998,318
834.941162,327
835.059448,310
835.177673,322
835.295959,310
835.414246,317
835.53241,321
835.650635,331
835.768921,308
835.887146,318
836.005371,324
836.123596,326
836.241821,313
836.360046,324
836.478271,313
836.596497,311
836.714722,314
836.832886,318
836.95105,312
837.069336,309
837.1875,324
837.305725,304
837.423889,310
837.542053,329
837.660339,316
837.778503,306
837.896667,324
838.014832,323
838.132996,327
838.25116,315
838.369385,308
838.487488,311
838.605713,324
838.723877,320
838.84198,315
838.960205,314
839.078308,318
839.196472,305
839.314636,308
839.4328,321
839.550964,305
839.669067,317
839.787231,317
839.905396,319
840.023499,309
840.141602,324
840.259766,308
840.377869,313
840.495972,315
840.614136,308
840.732239,318
840.850342,323
840.968445,326
841.086548,328
841.204651,313
841.322754,313
841.440918,318
841.55896,321
841.677002,313
841.795166,328
841.913208,309
842.031311,323
842.149353,307
842.267456,312
842.385498,306
842.503601,312
842.621643,311
842.739746,309
842.857788,303
842.97583,326
843.093933,303
843.211975,325
843.330017,305
843.44812,315
843.566101,310
843.684204,317
843.802246,315
843.920227,313
844.038269,303
844.156311,323
844.274292,317
844.392395,326
844.510376,306
844.628357,324
844.74646,312
844.864441,315
844.982422,313
845.100403,322
845.218384,312
845.336426,327
845.454468,329
845.572449,319
845.69043,308
845.808411,319
845.926453,304
846.044373,308
846.162354,301
846.280396,317
846.398315,314
846.516296,312
846.634216,319
846.752197,312
846.870178,321
846.988098,319
847.106079,309
847.22406,325
847.34198,306
847.4599,324
847.577881,312
847.695801,315
847.813782,312
847.931641,320
848.049561,303
848.167603,320
848.285461,305
848.403381,319
848.521362,306
848.639221,320
848.75708,307
848.875,317
848.99292,311
849.110901,325
849.22876,300
849.34668,321
849.464539,310
849.582458,318
849.700317,313
849.818176,327
849.936096,321
850.053955,318
850.171875,314
850.289673,317
850.407593,313
850.525452,314
850.643311,304
850.761169,312
850.878967,312
850.996887,315
851.114746,313
851.232544,312
851.350403,311
851.468262,317
851.58606,306
851.703979,315
851.821777,325
851.939636,318
852.057434,305
852.175232,309
852.293091,320
852.410889,320
852.528687,316
852.646545,319
852.764343,305
852.88208,330
852.999939,310
853.117676,314
853.235535,286
853.353271,325
853.471069,313
853.588928,313
853.706604,316
853.824402,323
853.9422,313
854.059998,316
854.177734,302
854.295532,336
854.413269,318
854.531006,309
854.648804,315
854.766541,323
854.884277,310
855.002014,329
855.119751,323
855.237549,308
855.355225,311
855.473022,313
855.590698,309
855.708435,301
855.826172,298
855.943848,313
856.061646,316
856.179321,310
856.296997,302
856.414795,306
856.53241,299
856.650085,317
856.767822,313
856.885559,316
857.003174,311
857.120911,330
857.238586,317
857.356201,297
857.473938,317
857.591614,324
857.709351,311
857.826965,323
857.944641,311
858.062317,318
858.179993,318
858.297668,329
858.415283,320
858.532959,314
858.650574,307
858.768188,313
858.885803,317
859.003479,319
859.121094,326
859.23877,308
859.356384,309
859.473999,322
859.591675,314
859.709229,307
859.826843,317
859.944458,324
860.062012,326
860.179626,325
860.297302,311
860.414856,321
860.532471,307
860.650024,310
860.767639,299
860.885193,311
861.002808,329
861.120361,322
861.237976,321
861.35553,332
861.473022,299
861.590698,309
861.708191,314
861.825745,316
861.943298,314
862.060852,309
862.178406,319
862.295959,312
862.413513,325
862.531006,321
862.64856,327
862.766113,318
862.883667,313
863.00116,318
863.118713,325
863.236206,314
863.353699,301
863.471252,312
863.588745,322
863.706177,329
863.82373,316
863.941162,303
864.058716,309
864.176208,314
864.29364,317
864.411194,318
864.528687,314
864.646118,305
864.763611,304
864.881042,322
864.998535,311
865.116028,310
865.233459,308
865.350891,313
865.468384,308
865.585754,319
865.703308,316
865.820679,309
865.938171,311
866.055542,311
866.173035,318
866.290466,320
866.407837,305
866.52533,316
866.6427,319
866.760071,315
866.877563,303
866.994934,307
867.112305,302
867.229736,314
867.347107,311
867.464539,319
867.58197,305
867.699341,319
867.81665,320
867.934082,329
868.051453,321
868.168823,308
868.286194,306
868.403564,331
868.520935,316
868.638306,301
868.755676,313
868.872986,315
868.990295,323
869.107727,324
869.225037,296
869.342346,321
869.459717,322
869.577026,328
869.694336,323
869.811707,321
869.929016,315
870.046326,324
870.163635,324
870.280945,317
870.398254,316
870.515564,323
870.632812,316
870.750183,332
870.867432,315
870.984741,321
871.102051,323
871.219299,320
871.336609,317
871.453918,310
871.571106,313
871.688416,315
871.805664,314
871.922852,319
872.040222,308
872.157471,323
872.274719,307
872.391968,308
872.509155,321
872.626465,306
872.743652,316
872.860962,324
872.978149,314
873.095337,323
873.212646,323
873.329834,319
873.44696,311
873.564209,312
873.681396,312
873.798645,323
873.915894,310
874.03302,320
874.150208,312
874.267456,317
874.384583,321
874.501831,316
874.618958,312
874.736145,317
874.853333,317
874.970459,313
875.087646,305
875.204834,311
875.32196,311
875.439148,321
875.556274,306
875.673401,325
875.790527,311
875.907715,321
876.024841,306
876.141968,326
876.259094,320
876.376282,310
876.493347,309
876.610474,319
876.7276,316
876.844727,308
876.961853,302
877.078918,324
877.195984,317
877.313171,316
877.430237,307
877.547302,309
877.664368,305
877.781433,321
877.898499,318
878.015625,318
878.13269,315
878.249695,312
878.366821,315
878.483887,319
878.600952,324
878.717957,318
878.834961,312
878.952087,306
879.069092,322
879.186157,326
879.303162,301
879.420227,321
879.537231,318
879.654236,314
879.77124,314
879.888306,328
880.005249,316
880.122314,324
880.239319,308
880.356323,327
880.473328,312
880.590271,309
880.707275,317
880.824341,318
880.941284,317
881.058228,314
881.175232,315
881.292236,310
881.40918,307
881.526123,311
881.643066,325
881.760071,315
881.877014,319
881.993958,318
882.11084,300
882.227783,326
882.344727,299
882.46167,320
882.578613,303
882.695618,321
882.812439,320
882.929382,324
883.046326,316
883.163208,314
883.280151,305
883.397034,325
883.513916,312
883.630798,323
883.747742,317
883.864563,311
883.981506,321
884.098389,306
884.21521,313
884.332153,319
884.448975,297
884.565796,319
884.682678,316
884.7995,321
884.916443,323
885.033264,328
885.150085,307
885.266968,316
885.383789,311
885.500671,320
885.617493,306
885.734314,319
885.851196,316
885.967896,314
886.084717,317
886.201599,320
886.318359,307
886.435181,322
886.552002,304
886.668762,315
886.785645,322
886.902344,324
887.019165,311
887.135925,313
887.252747,306
887.369446,310
887.486267,320
887.603027,317
887.719788,306
887.836548,313
887.953247,317
888.070068,315
888.186829,308
888.303528,327
888.420288,317
888.536987,307
888.653687,334
888.770447,320
888.887146,324
889.003967,341
889.120667,307
889.237305,316
889.354065,315
889.470703,319
889.587463,303
889.704163,320
889.820862,322
889.937561,326
890.054199,317
890.170837,314
890.287598,318
890.404236,320
890.520874,308
890.637634,325
890.754211,307
890.87085,317
890.987549,304
891.104187,322
891.220886,311
891.337463,312
891.454102,311
891.57074,331
891.687378,313
891.804077,321
891.920654,312
892.037231,320
892.15387,311
892.270447,326
892.387085,305
892.503723,321
892.6203,317
892.736877,317
892.853516,310
892.970032,313
893.08667,296
893.203186,310
893.319763,310
893.43634,309
893.552917,311
893.669556,306
893.786011,319
893.902588,318
894.019165,309
894.135681,326
894.252197,306
894.368835,329
894.485291,295
894.601868,314
894.718384,314
894.8349,323
894.951355,308
895.067932,323
895.184448,308
895.300964,319
895.417419,323
895.533936,320
895.650452,305
895.766907,322
895.883423,323
895.999878,309
896.116333,311
896.232849,313
896.349304,318
896.465759,322
896.582214,323
896.698669,305
896.815125,322
896.931641,317
897.048035,312
897.164551,340
897.280884,303
897.397339,320
897.513794,304
897.630249,328
897.746582,325
897.863098,316
897.979431,319
898.095886,333
898.212341,308
898.328674,311
898.445129,311
898.561462,322
898.677795,318
898.794312,322
898.910645,323
899.026978,323
899.143433,305
899.259766,313
899.37616,321
899.492493,313
899.608765,301
899.725159,320
899.841553,327
899.957947,303
900.07428,311
900.190552,320
900.306946,318
900.423157,319
900.53949,313
900.655884,316
900.772156,313
900.888489,318
901.004822,326
901.121033,314
901.237366,309
901.353699,320
901.46991,315
901.586304,312
901.702515,321
901.818787,310
901.93512,311
902.051331,322
902.167603,323
902.283875,321
902.400085,318
902.516418,321
902.632629,313
902.74884,318
902.865112,317
902.981384,315
903.097595,295
903.213867,311
903.330017,310
903.446289,317
903.5625,312
903.67865,338
903.794922,307
903.911072,317
904.027344,319
904.143494,324
904.259705,306
904.375916,325
904.492065,318
904.608215,321
904.724426,313
904.840576,323
904.956726,318
905.072876,315
905.189087,303
905.305176,322
905.421387,313
905.537537,316
905.653687,306
905.769775,318
905.885925,308
906.002014,318
906.118164,300
906.234314,321
906.350403,318
906.466492,320
906.582642,313
906.69873,317
906.814758,305
906.930908,318
907.046936,316
907.163086,316
907.279175,321
907.395264,324
907.511353,325
907.62738,317
907.743408,307
907.859497,321
907.975525,307
908.091553,317
908.207703,303
908.32373,312
908.439758,320
908.555786,326
908.671814,323
908.787842,316
908.90387,307
909.019775,315
909.135864,301
909.251892,325
909.367859,321
909.483826,317
909.599854,319
909.715881,315
909.831848,312
909.947815,314
910.063782,325
910.179749,319
910.295776,323
910.411743,328
910.527649,310
910.643616,320
910.759583,325
910.875488,314
910.991455,305
911.107361,324
911.223267,312
911.339294,311
911.4552,313
911.571106,307
911.687073,320
911.802979,316
911.918823,328
912.034729,301
912.150635,306
912.266602,323
912.382446,317
912.498352,323
912.614197,310
912.730103,318
912.846008,313
792.44574,309
792.56488,351
792.68396,396
792.80304,383
792.92218,330
793.041199,316
793.160339,313
793.279419,338
793.398499,319
793.517578,310
793.636658,307
793.755737,339
793.874817,344
793.993896,333
794.112976,324
794.232056,318
794.351074,327
794.470215,325
794.589233,339
794.708313,331
794.827393,315
794.946411,328
795.065552,324
795.18457,343
795.303589,324
795.422668,329
795.541687,311
795.660767,316
795.779846,322
795.898865,314
796.017883,325
796.136963,314
796.255981,335
796.375061,326
796.49408,323
796.613037,325
796.732117,329
796.851135,322
796.970154,330
797.089233,310
797.208191,315
797.327271,321
797.446228,320
797.565186,338
797.684265,317
797.803223,325
797.922241,325
798.04126,316
798.160278,332
798.279297,325
798.398315,319
798.517273,314
798.636292,331
798.75531,310
798.874268,332
798.993286,330
799.112244,327
799.231323,324
799.350281,325
799.469238,336
799.588257,311
799.707153,336
799.826111,330
799.945129,313
800.064087,308
800.183044,331
800.302063,315
800.421021,321
800.539978,315
800.658936,322
800.777893,320
800.896912,314
801.015747,318
801.134705,315
801.253723,329
801.37262,327
801.491638,321
801.610535,329
801.729492,306
801.84845,318
801.967407,322
802.086243,311
802.205261,311
802.324158,324
802.443115,326
802.562073,320
802.680969,318
802.799927,320
802.918762,331
803.037659,318
803.156677,319
803.275574,328
803.39447,318
803.513428,324
803.632263,315
803.751221,329
803.870117,326
803.989014,311
804.107971,326
804.226746,320
804.345642,320
804.4646,325
804.583496,315
804.702393,315
804.821228,319
804.940125,319
805.059021,313
805.177917,318
805.296814,328
805.415649,328
805.534546,318
805.653442,315
805.772278,310
805.891113,323
806.01001,315
806.128906,319
806.247742,317
806.366577,320
806.485413,309
806.604309,333
806.723145,317
806.84198,313
806.960876,321
807.079712,334
807.198486,308
807.317383,313
807.436218,324
807.554993,330
807.673889,325
807.792725,322
807.91156,322
808.030396,318
808.14917,338
808.268005,318
808.386841,314
808.505676,317
808.624451,320
808.743286,342
808.862122,319
808.980896,330
809.099731,318
809.218506,328
809.337341,329
809.456116,312
809.57489,325
809.693726,309
809.8125,335
809.931274,313
810.050049,308
810.168884,325
810.287659,323
810.406372,321
810.525269,323
810.643982,324
810.762756,315
810.881531,327
811.000305,330
811.11908,315
811.237854,313
811.356567,320
811.475403,311
811.594116,324
811.71283,310
811.831604,322
811.950378,308
812.069153,335
812.187927,316
812.30658,323
812.425415,323
812.544128,328
812.662781,307
812.781616,332
812.900269,304
813.019043,319
813.137756,315
813.256531,323
813.375244,324
813.493896,307
813.612671,322
813.731384,322
813.850037,339
813.96875,316
814.087524,301
814.206238,323
814.324951,311
814.443604,321
814.562256,307
814.68103,330
814.799683,300
814.918335,327
815.037109,326
815.155762,325
815.274475,331
815.393188,317
815.511841,320
815.630554,327
815.749146,325
815.867859,312
815.986572,315
816.105164,310
816.223877,325
816.342529,316
816.461182,303
816.579895,319
816.698486,306
816.817139,315
816.935791,309
817.054504,320
817.173096,326
817.291748,314
817.4104,318
817.529053,316
817.647644,321
817.766235,317
817.884949,324
818.00354,306
818.122192,340
818.240845,318
818.359436,320
818.478088,318
818.59668,313
818.715271,319
818.833923,328
818.952515,319
819.071106,329
819.189758,312
819.30835,330
819.426941,304
819.545532,316
819.664124,324
819.782715,312
819.901306,320
820.019897,313
820.138489,321
820.25708,315
820.375671,320
820.494202,322
820.612732,320
820.731384,307
820.849915,318
820.968506,309
821.087097,322
821.205627,323
821.324158,306
821.442749,319
821.561279,317
821.679871,330
821.798401,328
821.916931,305
822.035461,328
822.154053,317
822.272583,319
822.391174,307
822.509583,318
822.628174,334
822.746704,314
822.865234,313
822.983765,318
823.102295,313
823.220825,326
823.339294,333
823.457825,329
823.576355,325
823.694824,312
823.813354,317
823.931885,302
824.050354,303
824.168884,318
824.287354,314
824.405823,329
824.524353,325
824.642822,329
824.761353,320
824.879822,313
824.998291,319
825.116699,310
825.235291,317
825.353699,322
825.472168,306
825.590637,331
825.709106,316
825.827576,323
825.946045,319
826.064453,309
826.182983,312
826.301392,312
826.4198,320
826.53833,324
826.656738,311
826.775208,316
826.893677,316
827.012024,311
827.130493,311
827.248962,316
827.36731,302
827.485779,319
827.604248,306
827.722595,332
827.841064,320
827.959412,317
828.077942,312
828.196289,334
828.314636,307
828.433105,324
828.551514,311
828.669861,311
828.78833,324
828.906677,316
829.025085,315
829.143433,322
829.261841,312
829.38031,311
829.498657,302
829.617004,318
829.735413,310
829.85376,318
829.972107,334
830.090515,316
830.208862,320
830.327209,324
830.445557,322
830.563904,314
830.682312,301
830.800659,321
830.919006,305
831.037354,313
831.155701,319
831.274048,309
831.392395,319
831.51062,316
831.629028,318
831.747314,320
831.865662,314
831.984009,310
832.102356,316
832.220642,314
832.338928,317
832.457275,334
832.575623,301
832.693909,318
832.812134,308
832.930481,314
833.048828,316
833.167114,303
833.2854,330
833.403687,323
833.521973,329
833.640259,319
833.758545,315
833.876831,317
833.995056,304
834.113281,305
834.231628,310
834.349915,325
834.468201,318
834.586426,318
834.704651,300
834.822998,324
834.941162,325
835.059448,326
835.177673,312
835.295959,315
835.414246,309
835.53241,327
835.650635,317
835.768921,319
835.887146,310
836.005371,313
836.123596,313
836.241821,319
836.360046,315
836.478271,320
836.596497,319
836.714722,315
836.832886,324
836.95105,309
837.069336,315
837.1875,322
837.305725,320
837.423889,322
837.542053,310
837.660339,323
837.778503,333
837.896667,313
838.014832,321
838.132996,316
838.25116,308
838.369385,307
838.487488,303
838.605713,306
838.723877,310
838.84198,309
838.960205,327
839.078308,320
839.196472,309
839.314636,312
839.4328,327
839.550964,302
839.669067,323
839.787231,318
839.905396,330
840.023499,321
840.141602,321
840.259766,331
840.377869,314
840.495972,317
840.614136,320
840.732239,314
840.850342,313
840.968445,311
841.086548,323
841.204651,323
841.322754,315
841.440918,317
841.55896,307
841.677002,315
841.795166,306
841.913208,313
842.031311,323
842.149353,317
842.267456,316
842.385498,318
842.503601,314
842.621643,314
842.739746,310
842.857788,325
842.97583,306
843.093933,316
843.211975,325
843.330017,312
843.44812,319
843.566101,319
843.684204,322
843.802246,311
843.920227,321
844.038269,314
844.156311,312
844.274292,319
844.392395,311
844.510376,321
844.628357,311
844.74646,321
844.864441,330
844.982422,317
845.100403,325
845.218384,307
845.336426,310
845.454468,330
845.572449,313
845.69043,311
845.808411,320
845.926453,314
846.044373,308
846.162354,321
846.280396,308
846.398315,316
846.516296,320
846.634216,317
846.752197,302
846.870178,324
846.988098,304
847.106079,322
847.22406,313
847.34198,311
847.4599,312
847.577881,321
847.695801,305
847.813782,310
847.931641,317
848.049561,310
848.167603,321
848.285461,315
848.403381,312
848.521362,311
848.639221,309
848.75708,321
848.875,317
848.99292,317
849.110901,316
849.22876,323
849.34668,310
849.464539,317
849.582458,308
849.700317,321
849.818176,313
849.936096,312
850.053955,323
850.171875,317
850.289673,318
850.407593,309
850.525452,311
850.643311,320
850.761169,324
850.878967,330
850.996887,327
851.114746,334
851.232544,309
851.350403,309
851.468262,328
851.58606,325
851.703979,310
851.821777,319
851.939636,327
852.057434,309
852.175232,315
852.293091,330
852.410889,313
852.528687,325
852.646545,332
852.764343,326
852.88208,304
852.999939,322
853.117676,315
853.235535,322
853.353271,309
853.471069,323
853.588928,306
853.706604,316
853.824402,309
853.9422,309
854.059998,328
854.177734,327
854.295532,327
854.413269,320
854.531006,324
854.648804,325
854.766541,322
854.884277,326
855.002014,305
855.119751,311
855.237549,316
855.355225,312
855.473022,306
855.590698,315
855.708435,319
855.826172,321
855.943848,308
856.061646,316
856.179321,322
856.296997,313
856.414795,312
856.53241,319
856.650085,324
856.767822,312
856.885559,327
857.003174,307
857.120911,325
857.238586,318
857.356201,320
857.473938,317
857.591614,315
857.709351,318
857.826965,318
857.944641,311
858.062317,313
858.179993,299
858.297668,322
858.415283,316
858.532959,327
858.650574,321
858.768188,322
858.885803,330
859.003479,309
859.121094,308
859.23877,322
859.356384,314
859.473999,318
859.591675,317
859.709229,314
859.826843,319
859.944458,312
860.062012,319
860.179626,317
860.297302,323
860.414856,322
860.532471,317
860.650024,327
860.767639,300
860.885193,309
861.002808,312
861.120361,306
861.237976,325
861.35553,316
861.473022,317
861.590698,320
861.708191,312
861.825745,311
861.943298,324
862.060852,305
862.178406,337
862.295959,316
862.413513,311
862.531006,323
862.64856,316
862.766113,323
862.883667,306
863.00116,319
863.118713,327
863.236206,314
863.353699,320
863.471252,317
863.588745,318
863.706177,318
863.82373,311
863.941162,317
864.058716,304
864.176208,315
864.29364,322
864.411194,324
864.528687,303
864.646118,319
864.763611,312
864.881042,320
864.998535,316
865.116028,314
865.233459,315
865.350891,316
865.468384,310
865.585754,297
865.703308,336
865.820679,314
865.938171,320
866.055542,303
866.173035,316
866.290466,320
866.407837,304
866.52533,314
866.6427,327
866.760071,319
866.877563,312
866.994934,299
867.112305,313
867.229736,328
867.347107,308
867.464539,318
867.58197,318
867.699341,316
867.81665,313
867.934082,316
868.051453,310
868.168823,323
868.286194,314
868.403564,315
868.520935,304
868.638306,309
868.755676,309
868.872986,321
868.990295,310
869.107727,311
869.225037,323
869.342346,319
869.459717,323
869.577026,310
869.694336,330
869.811707,326
869.929016,319
870.046326,315
870.163635,314
870.280945,310
870.398254,317
870.515564,308
870.632812,317
870.750183,318
870.867432,309
870.984741,311
871.102051,320
871.219299,312
871.336609,314
871.453918,313
871.571106,315
871.688416,309
871.805664,312
871.922852,322
872.040222,323
872.157471,324
872.274719,318
872.391968,337
872.509155,310
872.626465,307
872.743652,318
872.860962,306
872.978149,318
873.095337,305
873.212646,312
873.329834,315
873.44696,314
873.564209,312
873.681396,316
873.798645,305
873.915894,311
874.03302,311
874.150208,317
874.267456,320
874.384583,310
874.501831,305
874.618958,313
874.736145,321
874.853333,315
874.970459,314
875.087646,305
875.204834,322
875.32196,331
875.439148,323
875.556274,323
875.673401,318
875.790527,319
875.907715,322
876.024841,323
876.141968,318
876.259094,315
876.376282,320
876.493347,299
876.610474,330
876.7276,307
876.844727,316
876.961853,315
877.078918,312
877.195984,316
877.313171,310
877.430237,315
877.547302,326
877.664368,318
877.781433,306
877.898499,329
878.015625,319
878.13269,336
878.249695,307
878.366821,318
878.483887,313
878.600952,320
878.717957,316
878.834961,323
878.952087,334
879.069092,317
879.186157,317
879.303162,309
879.420227,312
879.537231,317
879.654236,323
879.77124,327
879.888306,313
880.005249,329
880.122314,325
880.239319,319
880.356323,316
880.473328,327
880.590271,312
880.707275,318
880.824341,307
880.941284,314
881.058228,317
881.175232,317
881.292236,317
881.40918,315
881.526123,313
881.643066,313
881.760071,316
881.877014,329
881.993958,325
882.11084,312
882.227783,309
882.344727,328
882.46167,323
882.578613,318
882.695618,303
882.812439,318
882.929382,315
883.046326,313
883.163208,317
883.280151,318
883.397034,315
883.513916,313
883.630798,311
883.747742,319
883.864563,323
883.981506,313
884.098389,316
884.21521,318
884.332153,309
884.448975,316
884.565796,317
884.682678,316
884.7995,316
884.916443,319
885.033264,320
885.150085,307
885.266968,314
885.383789,322
885.500671,326
885.617493,312
885.734314,306
885.851196,311
885.967896,318
886.084717,309
886.201599,310
886.318359,322
886.435181,314
886.552002,320
886.668762,307
886.785645,312
886.902344,314
887.019165,314
887.135925,319
887.252747,318
887.369446,311
887.486267,316
887.603027,316
887.719788,317
887.836548,308
887.953247,320
888.070068,312
888.186829,312
888.303528,320
888.420288,320
888.536987,327
888.653687,329
888.770447,318
888.887146,312
889.003967,301
889.120667,306
889.237305,304
889.354065,328
889.470703,320
889.587463,327
889.704163,310
889.820862,326
889.937561,317
890.054199,317
890.170837,319
890.287598,306
890.404236,303
890.520874,313
890.637634,310
890.754211,325
890.87085,315
890.987549,335
891.104187,297
891.220886,324
891.337463,305
891.454102,317
891.57074,325
891.687378,327
891.804077,315
891.920654,314
892.037231,315
892.15387,305
892.270447,305
892.387085,307
892.503723,317
892.6203,311
892.736877,316
892.853516,323
892.970032,306
893.08667,309
893.203186,314
893.319763,316
893.43634,319
893.552917,321
893.669556,318
893.786011,312
893.902588,320
894.019165,322
894.135681,307
894.252197,318
894.368835,316
894.485291,337
894.601868,316
894.718384,317
894.8349,306
894.951355,320
895.067932,312
895.184448,320
895.300964,333
895.417419,315
895.533936,311
895.650452,320
895.766907,311
895.883423,321
895.999878,318
896.116333,319
896.232849,325
896.349304,321
896.465759,318
896.582214,317
896.698669,316
896.815125,317
896.931641,312
897.048035,323
897.164551,305
897.280884,319
897.397339,299
897.513794,321
897.630249,315
897.746582,314
897.863098,322
897.979431,330
898.095886,321
898.212341,321
898.328674,317
898.445129,317
898.561462,306
898.677795,325
898.794312,310
898.910645,317
899.026978,318
899.143433,321
899.259766,313
899.37616,315
899.492493,312
899.608765,332
899.725159,312
899.841553,315
899.957947,313
900.07428,310
900.190552,300
900.306946,322
900.423157,322
900.53949,310
900.655884,320
900.772156,313
900.888489,319
901.004822,318
901.121033,310
901.237366,315
901.353699,310
901.46991,320
901.586304,313
901.702515,321
901.818787,308
901.93512,323
902.051331,312
902.167603,327
902.283875,317
902.400085,318
902.516418,316
902.632629,328
902.74884,320
902.865112,324
902.981384,309
903.097595,321
903.213867,316
903.330017,329
903.446289,309
903.5625,318
903.67865,320
903.794922,332
903.911072,323
904.027344,335
904.143494,320
904.259705,328
904.375916,316
904.492065,317
904.608215,327
904.724426,326
904.840576,318
904.956726,301
905.072876,312
905.189087,318
905.305176,313
905.421387,319
905.537537,324
905.653687,318
905.769775,324
905.885925,312
906.002014,309
906.118164,326
906.234314,318
906.350403,314
906.466492,307
906.582642,325
906.69873,307
906.814758,319
906.930908,318
907.046936,300
907.163086,312
907.279175,324
907.395264,318
907.511353,325
907.62738,323
907.743408,331
907.859497,307
907.975525,313
908.091553,328
908.207703,312
908.32373,312
908.439758,307
908.555786,313
908.671814,309
908.787842,317
908.90387,319
909.019775,316
909.135864,307
909.251892,300
909.367859,325
909.483826,312
909.599854,313
909.715881,334
909.831848,314
909.947815,319
910.063782,311
910.179749,319
910.295776,316
910.411743,315
910.527649,316
910.643616,325
910.759583,307
910.875488,314
910.991455,315
911.107361,320
911.223267,323
911.339294,311
911.4552,318
911.571106,324
911.687073,329
911.802979,307
911.918823,331
912.034729,321
912.150635,315
912.266602,310
912.382446,326
912.498352,310
912.614197,318
912.730103,322
912.846008,314
792.44574,306
792.56488,347
792.68396,385
792.80304,372
792.92218,327
793.041199,301
793.160339,317
793.279419,323
793.398499,319
793.517578,315
793.636658,300
793.755737,305
793.874817,348
793.993896,340
794.112976,330
794.232056,318
794.351074,328
794.470215,328
794.589233,338
794.708313,311
794.827393,329
794.946411,331
795.065552,323
795.18457,331
795.303589,316
795.422668,329
795.541687,338
795.660767,326
795.779846,325
795.898865,317
796.017883,319
796.136963,335
796.255981,314
796.375061,321
796.49408,331
796.613037,324
796.732117,332
796.851135,327
796.970154,323
797.089233,325
797.208191,326
797.327271,324
797.446228,318
797.565186,325
797.684265,322
797.803223,322
797.922241,320
798.04126,317
798.160278,310
798.279297,313
798.398315,319
798.517273,337
798.636292,315
798.75531,322
798.874268,331
798.993286,320
799.112244,324
799.231323,323
799.350281,323
799.469238,331
799.588257,324
799.707153,320
799.826111,324
799.945129,336
800.064087,320
800.183044,318
800.302063,326
800.421021,331
800.539978,321
800.658936,330
800.777893,325
800.896912,314
801.015747,325
801.134705,328
801.253723,311
801.37262,324
801.491638,322
801.610535,322
801.729492,329
801.84845,324
801.967407,325
802.086243,319
802.205261,317
802.324158,313
802.443115,323
802.562073,325
802.680969,320
802.799927,329
802.918762,337
803.037659,329
803.156677,322
803.275574,322
803.39447,320
803.513428,333
803.632263,312
803.751221,330
803.870117,324
803.989014,321
804.107971,323
804.226746,327
804.345642,315
804.4646,306
804.583496,323
804.702393,336
804.821228,314
804.940125,316
805.059021,319
805.177917,324
805.296814,328
805.415649,318
805.534546,327
805.653442,313
805.772278,325
805.891113,314
806.01001,327
806.128906,321
806.247742,344
806.366577,313
806.485413,331
806.604309,318
806.723145,320
806.84198,315
806.960876,331
807.079712,309
807.198486,317
807.317383,320
807.436218,315
807.554993,317
807.673889,325
807.792725,329
807.91156,323
808.030396,311
808.14917,328
808.268005,322
808.386841,325
808.505676,317
808.624451,325
808.743286,320
808.862122,322
808.980896,326
809.099731,308
809.218506,318
809.337341,314
809.456116,321
809.57489,331
809.693726,325
809.8125,331
809.931274,320
810.050049,320
810.168884,312
810.287659,327
810.406372,329
810.525269,324
810.643982,314
810.762756,323
810.881531,313
811.000305,323
811.11908,330
811.237854,340
811.356567,317
811.475403,324
811.594116,327
811.71283,327
811.831604,326
811.950378,316
812.069153,321
812.187927,321
812.30658,309
812.425415,320
812.544128,320
812.662781,333
812.781616,305
812.900269,315
813.019043,318
813.137756,321
813.256531,337
813.375244,306
813.493896,318
813.612671,331
813.731384,315
813.850037,321
813.96875,320
814.087524,324
814.206238,325
814.324951,317
814.443604,315
814.562256,336
814.68103,326
814.799683,315
814.918335,309
815.037109,328
815.155762,314
815.274475,320
815.393188,322
815.511841,323
815.630554,320
815.749146,335
815.867859,311
815.986572,320
816.105164,322
816.223877,309
816.342529,304
816.461182,315
816.579895,315
816.698486,325
816.817139,314
816.935791,318
817.054504,313
817.173096,330
817.291748,307
817.4104,307
817.529053,321
817.647644,319
817.766235,318
817.884949,330
818.00354,318
818.122192,320
818.240845,329
818.359436,326
818.478088,323
818.59668,319
818.715271,329
818.833923,347
818.952515,325
819.071106,315
819.189758,305
819.30835,322
819.426941,313
819.545532,325
819.664124,313
819.782715,322
819.901306,309
820.019897,321
820.138489,324
820.25708,307
820.375671,322
820.494202,321
820.612732,319
820.731384,331
820.849915,326
820.968506,320
821.087097,317
821.205627,313
821.324158,325
821.442749,328
821.561279,333
821.679871,318
821.798401,327
821.916931,330
822.035461,323
822.154053,329
822.272583,312
822.391174,320
822.509583,316
822.628174,314
822.746704,321
822.865234,315
822.983765,312
823.102295,323
823.220825,313
823.339294,314
823.457825,327
823.576355,319
823.694824,311
823.813354,323
823.931885,323
824.050354,317
824.168884,311
824.287354,312
824.405823,326
824.524353,310
824.642822,326
824.761353,336
824.879822,318
824.998291,306
825.116699,305
825.235291,309
825.353699,304
825.472168,316
825.590637,330
825.709106,314
825.827576,313
825.946045,320
826.064453,324
826.182983,306
826.301392,321
826.4198,323
826.53833,317
826.656738,332
826.775208,306
826.893677,318
827.012024,306
827.130493,321
827.248962,312
827.36731,316
827.485779,325
827.604248,332
827.722595,314
827.841064,313
827.959412,319
828.077942,323
828.196289,313
828.314636,313
828.433105,316
828.551514,317
828.669861,323
828.78833,321
828.906677,313
829.025085,316
829.143433,328
829.261841,304
829.38031,312
829.498657,321
829.617004,316
829.735413,319
829.85376,312
829.972107,318
830.090515,317
830.208862,318
830.327209,323
830.445557,316
830.563904,314
830.682312,303
830.800659,318
830.919006,313
831.037354,315
831.155701,315
831.274048,312
831.392395,329
831.51062,312
831.629028,316
831.747314,307
831.865662,326
831.984009,319
832.102356,312
832.220642,319
832.338928,323
832.457275,313
832.575623,321
832.693909,309
832.812134,324
832.930481,321
833.048828,323
833.167114,312
833.2854,320
833.403687,313
833.521973,325
833.640259,307
833.758545,316
833.876831,313
833.995056,329
834.113281,304
834.231628,326
834.349915,309
834.468201,314
834.586426,308
834.704651,323
834.822998,314
834.941162,324
835.059448,317
835.177673,312
835.295959,318
835.414246,322
835.53241,316
835.650635,318
835.768921,306
835.887146,325
836.005371,305
836.123596,329
836.241821,308
836.360046,313
836.478271,321
836.596497,311
836.714722,307
836.832886,317
836.95105,317
837.069336,312
837.1875,327
837.305725,324
837.423889,314
837.542053,322
837.660339,323
837.778503,339
837.896667,316
838.014832,318
838.132996,317
838.25116,321
838.369385,315
838.487488,332
838.605713,313
838.723877,309
838.84198,324
838.960205,323
839.078308,331
839.196472,320
839.314636,307
839.4328,303
839.550964,338
839.669067,310
839.787231,320
839.905396,305
840.023499,315
840.141602,309
840.259766,312
840.377869,316
840.495972,317
840.614136,318
840.732239,313
840.850342,319
840.968445,309
841.086548,311
841.204651,309
841.322754,315
841.440918,307
841.55896,319
841.677002,312
841.795166,325
841.913208,317
842.031311,329
842.149353,305
842.267456,325
842.385498,316
842.503601,329
842.621643,312
842.739746,322
842.857788,311
842.97583,319
843.093933,310
843.211975,325
843.330017,310
843.44812,317
843.566101,311
843.684204,318
843.802246,313
843.920227,320
844.038269,314
844.156311,320
844.274292,315
844.392395,327
844.510376,314
844.628357,310
844.74646,321
844.864441,322
844.982422,320
845.100403,321
845.218384,316
845.336426,320
845.454468,318
845.572449,313
845.69043,318
845.808411,318
845.926453,301
846.044373,304
846.162354,331
846.280396,315
846.398315,306
846.516296,337
846.634216,303
846.752197,323
846.870178,308
846.988098,317
847.106079,307
847.22406,307
847.34198,322
847.4599,313
847.577881,318
847.695801,322
847.813782,304
847.931641,312
848.049561,323
848.167603,311
848.285461,330
848.403381,319
848.521362,316
848.639221,326
848.75708,331
848.875,324
848.99292,304
849.110901,320
849.22876,314
849.34668,322
849.464539,319
849.582458,328
849.700317,309
849.818176,324
849.936096,306
850.053955,312
850.171875,315
850.289673,328
850.407593,306
850.525452,317
850.643311,318
850.761169,318
850.878967,319
850.996887,294
851.114746,321
851.232544,317
851.350403,315
851.468262,314
851.58606,316
851.703979,319
851.821777,312
851.939636,313
852.057434,312
852.175232,312
852.293091,318
852.410889,318
852.528687,324
852.646545,321
852.764343,306
852.88208,313
852.999939,326
853.117676,318
853.235535,313
853.353271,310
853.471069,307
853.588928,321
853.706604,321
853.824402,320
853.9422,300
854.059998,301
854.177734,305
854.295532,307
854.413269,312
854.531006,327
854.648804,299
854.766541,318
854.884277,314
855.002014,322
855.119751,326
855.237549,322
855.355225,321
855.473022,315
855.590698,314
855.708435,324
855.826172,311
855.943848,323
856.061646,321
856.179321,311
856.296997,313
856.414795,314
856.53241,315
856.650085,318
856.767822,315
856.885559,322
857.003174,321
857.120911,318
857.238586,308
857.356201,323
857.473938,325
857.591614,320
857.709351,306
857.826965,321
857.944641,319
858.062317,308
858.179993,313
858.297668,313
858.415283,318
858.532959,345
858.650574,306
858.768188,313
858.885803,318
859.003479,319
859.121094,316
859.23877,313
859.356384,316
859.473999,318
859.591675,306
859.709229,312
859.826843,307
859.944458,304
860.062012,309
860.179626,313
860.297302,321
860.414856,324
860.532471,320
860.650024,323
860.767639,311
860.885193,316
861.002808,323
861.120361,315
861.237976,325
861.35553,333
861.473022,317
861.590698,303
861.708191,321
861.825745,329
861.943298,316
862.060852,326
862.178406,306
862.295959,319
862.413513,311
862.531006,310
862.64856,310
862.766113,316
862.883667,317
863.00116,320
863.118713,324
863.236206,323
863.353699,326
863.471252,321
863.588745,313
863.706177,324
863.82373,318
863.941162,329
864.058716,314
864.176208,317
864.29364,318
864.411194,316
864.528687,313
864.646118,314
864.763611,321
864.881042,326
864.998535,319
865.116028,309
865.233459,311
865.350891,317
865.468384,312
865.585754,323
865.703308,318
865.820679,316
865.938171,320
866.055542,316
866.173035,319
866.290466,316
866.407837,313
866.52533,316
866.6427,309
866.760071,325
866.877563,313
866.994934,318
867.112305,325
867.229736,320
867.347107,320
867.464539,309
867.58197,318
867.699341,312
867.81665,322
867.934082,321
868.051453,318
868.168823,328
868.286194,315
868.403564,313
868.520935,319
868.638306,326
868.755676,307
868.872986,322
868.990295,308
869.107727,315
869.225037,309
869.342346,320
869.459717,316
869.577026,312
869.694336,323
869.811707,327
869.929016,308
870.046326,321
870.163635,301
870.280945,326
870.398254,307
870.515564,310
870.632812,306
870.750183,319
870.867432,306
870.984741,330
871.102051,314
871.219299,317
871.336609,313
871.453918,310
871.571106,326
871.688416,318
871.805664,320
871.922852,314
872.040222,325
872.157471,328
872.274719,326
872.391968,313
872.509155,313
872.626465,334
872.743652,325
872.860962,324
872.978149,331
873.095337,326
873.212646,313
873.329834,320
873.44696,317
873.564209,330
873.681396,309
873.798645,309
873.915894,302
874.03302,326
874.150208,323
874.267456,325
874.384583,312
874.501831,318
874.618958,306
874.736145,317
874.853333,311
874.970459,324
875.087646,308
875.204834,312
875.32196,324
875.439148,322
875.556274,323
875.673401,319
875.790527,303
875.907715,313
876.024841,310
876.141968,324
876.259094,306
876.376282,312
876.493347,308
876.610474,318
876.7276,325
876.844727,314
876.961853,318
877.078918,330
877.195984,298
877.313171,311
877.430237,319
877.547302,315
877.664368,310
877.781433,318
877.898499,319
878.015625,331
878.13269,326
878.249695,319
878.366821,308
878.483887,314
878.600952,298
878.717957,312
878.834961,318
878.952087,298
879.069092,312
879.186157,317
879.303162,324
879.420227,312
879.537231,314
879.654236,319
879.77124,324
879.888306,316
880.005249,314
880.122314,315
880.239319,314
880.356323,325
880.473328,327
880.590271,308
880.707275,318
880.824341,316
880.941284,317
881.058228,320
881.175232,322
881.292236,314
881.40918,319
881.526123,322
881.643066,303
881.760071,316
881.877014,311
881.993958,325
882.11084,321
882.227783,315
882.344727,316
882.46167,339
882.578613,327
882.695618,315
882.812439,303
882.929382,315
883.046326,312
883.163208,321
883.280151,302
883.397034,319
883.513916,314
883.630798,325
883.747742,322
883.864563,319
883.981506,318
884.098389,316
884.21521,313
884.332153,323
884.448975,319
884.565796,317
884.682678,322
884.7995,321
884.916443,324
885.033264,315
885.150085,313
885.266968,331
885.383789,318
885.500671,316
885.617493,323
885.734314,320
885.851196,319
885.967896,324
886.084717,321
886.201599,323
886.318359,308
886.435181,316
886.552002,320
886.668762,339
886.785645,320
886.902344,324
887.019165,320
887.135925,320
887.252747,319
887.369446,310
887.486267,312
887.603027,321
887.719788,328
887.836548,336
887.953247,302
888.070068,317
888.186829,317
888.303528,326
888.420288,310
888.536987,322
888.653687,322
888.770447,322
888.887146,302
889.003967,319
889.120667,315
889.237305,309
889.354065,303
889.470703,330
889.587463,315
889.704163,346
889.820862,307
889.937561,311
890.054199,303
890.170837,318
890.287598,310
890.404236,309
890.520874,312
890.637634,325
890.754211,318
890.87085,331
890.987549,303
891.104187,313
891.220886,310
891.337463,323
891.454102,316
891.57074,317
891.687378,322
891.804077,321
891.920654,309
892.037231,319
892.15387,313
892.270447,323
892.387085,309
892.503723,321
892.6203,310
892.736877,326
892.853516,322
892.970032,307
893.08667,302
893.203186,305
893.319763,306
893.43634,326
893.552917,315
893.669556,318
893.786011,308
893.902588,329
894.019165,315
894.135681,328
894.252197,318
894.368835,321
894.485291,312
894.601868,318
894.718384,316
894.8349,306
894.951355,327
895.067932,316
895.184448,307
895.300964,309
895.417419,312
895.533936,318
895.650452,314
895.766907,326
895.883423,297
895.999878,314
896.116333,315
896.232849,321
896.349304,311
896.465759,318
896.582214,323
896.698669,307
896.815125,321
896.931641,317
897.048035,306
897.164551,332
897.280884,316
897.397339,315
897.513794,317
897.630249,315
897.746582,309
897.863098,326
897.979431,325
898.095886,329
898.212341,321
898.328674,320
898.445129,322
898.561462,313
898.677795,314
898.794312,328
898.910645,319
899.026978,324
899.143433,313
899.259766,328
899.37616,310
899.492493,327
899.608765,321
899.725159,326
899.841553,330
899.957947,305
900.07428,318
900.190552,311
900.306946,312
900.423157,323
900.53949,304
900.655884,327
900.772156,316
900.888489,309
901.004822,317
901.121033,317
901.237366,317
901.353699,329
901.46991,315
901.586304,319
901.702515,314
901.818787,331
901.93512,316
902.051331,332
902.167603,309
902.283875,325
902.400085,307
902.516418,318
902.632629,304
902.74884,332
902.865112,305
902.981384,317
903.097595,321
903.213867,324
903.330017,319
903.446289,312
903.5625,319
903.67865,325
903.794922,314
903.911072,324
904.027344,315
904.143494,316
904.259705,315
904.375916,328
904.492065,320
904.608215,317
904.724426,318
904.840576,325
904.956726,317
905.072876,311
905.189087,309
905.305176,319
905.421387,321
905.537537,310
905.653687,322
905.769775,328
905.885925,317
906.002014,323
906.118164,310
906.234314,319
906.350403,312
906.466492,324
906.582642,306
906.69873,324
906.814758,315
906.930908,322
907.046936,311
907.163086,318
907.279175,300
907.395264,326
907.511353,307
907.62738,318
907.743408,314
907.859497,320
907.975525,318
908.091553,314
908.207703,314
908.32373,315
908.439758,313
908.555786,309
908.671814,317
908.787842,328
908.90387,302
909.019775,317
909.135864,314
909.251892,315
909.367859,309
909.483826,318
909.599854,327
909.715881,314
909.831848,314
909.947815,322
910.063782,317
910.179749,314
910.295776,316
910.411743,335
910.527649,312
910.643616,316
910.759583,310
910.875488,320
910.991455,319
911.107361,327
911.223267,323
911.339294,321
911.4552,316
911.571106,319
911.687073,320
911.802979,326
911.918823,311
912.034729,329
912.150635,308
912.266602,325
912.382446,320
912.498352,316
912.614197,316
912.730103,330
912.846008,307
