792.44574,303
792.56488,342
792.68396,405
792.80304,382
792.92218,342
793.041199,322
793.160339,323
793.279419,339
793.398499,324
793.517578,317
793.636658,313
793.755737,330
793.874817,352
793.993896,344
794.112976,330
794.232056,313
794.351074,333
794.470215,337
794.589233,344
794.708313,331
794.827393,328
794.946411,326
795.065552,336
795.18457,330
795.303589,337
795.422668,312
795.541687,332
795.660767,318
795.779846,327
795.898865,321
796.017883,337
796.136963,327
796.255981,334
796.375061,340
796.49408,319
796.613037,322
796.732117,324
796.851135,340
796.970154,333
797.089233,326
797.208191,331
797.327271,335
797.446228,331
797.565186,340
797.684265,322
797.803223,334
797.922241,339
798.04126,327
798.160278,328
798.279297,318
798.398315,337
798.517273,323
798.636292,318
798.75531,318
798.874268,320
798.993286,327
799.112244,333
799.231323,327
799.350281,312
799.469238,315
799.588257,344
799.707153,333
799.826111,327
799.945129,332
800.064087,326
800.183044,321
800.302063,316
800.421021,327
800.539978,331
800.658936,318
800.777893,330
800.896912,330
801.015747,305
801.134705,322
801.253723,325
801.37262,335
801.491638,317
801.610535,331
801.729492,328
801.84845,323
801.967407,322
802.086243,325
802.205261,332
802.324158,310
802.443115,322
802.562073,325
802.680969,331
802.799927,321
802.918762,334
803.037659,311
803.156677,318
803.275574,328
803.39447,327
803.513428,336
803.632263,316
803.751221,337
803.870117,332
803.989014,311
804.107971,310
804.226746,325
804.345642,328
804.4646,322
804.583496,338
804.702393,327
804.821228,320
804.940125,324
805.059021,325
805.177917,330
805.296814,316
805.415649,330
805.534546,331
805.653442,323
805.772278,327
805.891113,319
806.01001,319
806.128906,330
806.247742,323
806.366577,328
806.485413,326
806.604309,324
806.723145,318
806.84198,314
806.960876,329
807.079712,329
807.198486,327
807.317383,336
807.436218,326
807.554993,322
807.673889,322
807.792725,329
807.91156,332
808.030396,323
808.14917,304
808.268005,333
808.386841,315
808.505676,331
808.624451,332
808.743286,328
808.862122,331
808.980896,320
809.099731,326
809.218506,303
809.337341,328
809.456116,318
809.57489,330
809.693726,324
809.8125,336
809.931274,333
810.050049,333
810.168884,331
810.287659,326
810.406372,336
810.525269,334
810.643982,320
810.762756,328
810.881531,324
811.000305,334
811.11908,348
811.237854,339
811.356567,317
811.475403,333
811.594116,323
811.71283,346
811.831604,310
811.950378,337
812.069153,346
812.187927,328
812.30658,321
812.425415,320
812.544128,328
812.662781,324
812.781616,329
812.900269,322
813.019043,324
813.137756,333
813.256531,333
813.375244,325
813.493896,334
813.612671,339
813.731384,325
813.850037,332
813.96875,328
814.087524,328
814.206238,328
814.324951,323
814.443604,329
814.562256,329
814.68103,320
814.799683,316
814.918335,324
815.037109,322
815.155762,320
815.274475,333
815.393188,326
815.511841,331
815.630554,335
815.749146,326
815.867859,325
815.986572,323
816.105164,329
816.223877,326
816.342529,323
816.461182,340
816.579895,333
816.698486,312
816.817139,320
816.935791,332
817.054504,323
817.173096,332
817.291748,329
817.4104,344
817.529053,320
817.647644,336
817.766235,319
817.884949,330
818.00354,340
818.122192,311
818.240845,318
818.359436,323
818.478088,321
818.59668,316
818.715271,318
818.833923,331
818.952515,312
819.071106,316
819.189758,309
819.30835,314
819.426941,312
819.545532,312
819.664124,316
819.782715,331
819.901306,319
820.019897,315
820.138489,308
820.25708,317
820.375671,312
820.494202,312
820.612732,306
820.731384,319
820.849915,316
820.968506,321
821.087097,320
821.205627,311
821.324158,319
821.442749,315
821.561279,322
821.679871,304
821.798401,327
821.916931,308
822.035461,319
822.154053,318
822.272583,315
822.391174,328
822.509583,305
822.628174,310
822.746704,320
822.865234,324
822.983765,316
823.102295,326
823.220825,312
823.339294,327
823.457825,333
823.576355,314
823.694824,315
823.813354,306
823.931885,315
824.050354,316
824.168884,327
824.287354,323
824.405823,313
824.524353,307
824.642822,318
824.761353,335
824.879822,316
824.998291,324
825.116699,315
825.235291,316
825.353699,317
825.472168,312
825.590637,312
825.709106,322
825.827576,313
825.946045,313
826.064453,313
826.182983,312
826.301392,319
826.4198,313
826.53833,313
826.656738,325
826.775208,315
826.893677,323
827.012024,325
827.130493,310
827.248962,311
827.36731,316
827.485779,314
827.604248,327
827.722595,305
827.841064,315
827.959412,318
828.077942,314
828.196289,314
828.314636,320
828.433105,319
828.551514,318
828.669861,303
828.78833,316
828.906677,308
829.025085,316
829.143433,315
829.261841,326
829.38031,312
829.498657,312
829.617004,307
829.735413,321
829.85376,310
829.972107,320
830.090515,305
830.208862,317
830.327209,320
830.445557,312
830.563904,314
830.682312,319
830.800659,327
830.919006,311
831.037354,320
831.155701,313
831.274048,318
831.392395,325
831.51062,314
831.629028,318
831.747314,310
831.865662,318
831.984009,316
832.102356,325
832.220642,327
832.338928,319
832.457275,311
832.575623,328
832.693909,310
832.812134,315
832.930481,313
833.048828,322
833.167114,317
833.2854,313
833.403687,308
833.521973,326
833.640259,304
833.758545,329
833.876831,318
833.995056,317
834.113281,321
834.231628,316
834.349915,306
834.468201,309
834.586426,319
834.704651,326
834.822998,299
834.941162,318
835.059448,315
835.177673,314
835.295959,323
835.414246,300
835.53241,317
835.650635,319
835.768921,313
835.887146,337
836.005371,323
836.123596,320
836.241821,299
836.360046,321
836.478271,306
836.596497,325
836.714722,324
836.832886,308
836.95105,310
837.069336,298
837.1875,311
837.305725,314
837.423889,314
837.542053,328
837.660339,306
837.778503,311
837.896667,314
838.014832,302
838.132996,303
838.25116,313
838.369385,313
838.487488,323
838.605713,306
838.723877,328
838.84198,315
838.960205,319
839.078308,320
839.196472,328
839.314636,305
839.4328,309
839.550964,333
839.669067,323
839.787231,303
839.905396,318
840.023499,317
840.141602,327
840.259766,317
840.377869,332
840.495972,321
840.614136,315
840.732239,313
840.850342,309
840.968445,316
841.086548,326
841.204651,304
841.322754,320
841.440918,303
841.55896,325
841.677002,315
841.795166,316
841.913208,319
842.031311,318
842.149353,329
842.267456,327
842.385498,322
842.503601,332
842.621643,308
842.739746,312
842.857788,326
842.97583,319
843.093933,314
843.211975,327
843.330017,296
843.44812,324
843.566101,312
843.684204,328
843.802246,317
843.920227,319
844.038269,307
844.156311,317
844.274292,314
844.392395,319
844.510376,319
844.628357,317
844.74646,314
844.864441,320
844.982422,314
845.100403,314
845.218384,307
845.336426,321
845.454468,318
845.572449,318
845.69043,317
845.808411,308
845.926453,315
846.044373,322
846.162354,311
846.280396,317
846.398315,308
846.516296,313
846.634216,302
846.752197,318
846.870178,314
846.988098,319
847.106079,296
847.22406,308
847.34198,317
847.4599,312
847.577881,314
847.695801,318
847.813782,310
847.931641,319
848.049561,312
848.167603,322
848.285461,322
848.403381,320
848.521362,309
848.639221,311
848.75708,317
848.875,310
848.99292,327
849.110901,307
849.22876,313
849.34668,304
849.464539,317
849.582458,319
849.700317,320
849.818176,311
849.936096,320
850.053955,315
850.171875,316
850.289673,312
850.407593,313
850.525452,326
850.643311,312
850.761169,323
850.878967,310
850.996887,317
851.114746,317
851.232544,315
851.350403,316
851.468262,319
851.58606,320
851.703979,313
851.821777,313
851.939636,316
852.057434,318
852.175232,325
852.293091,313
852.410889,321
852.528687,317
852.646545,321
852.764343,313
852.88208,316
852.999939,302
853.117676,318
853.235535,316
853.353271,324
853.471069,319
853.588928,310
853.706604,326
853.824402,328
853.9422,309
854.059998,329
854.177734,309
854.295532,339
854.413269,315
854.531006,301
854.648804,316
854.766541,323
854.884277,307
855.002014,320
855.119751,309
855.237549,320
855.355225,314
855.473022,320
855.590698,310
855.708435,323
855.826172,314
855.943848,314
856.061646,321
856.179321,310
856.296997,306
856.414795,303
856.53241,328
856.650085,332
856.767822,309
856.885559,326
857.003174,300
857.120911,315
857.238586,331
857.356201,332
857.473938,313
857.591614,325
857.709351,307
857.826965,305
857.944641,326
858.062317,318
858.179993,323
858.297668,314
858.415283,316
858.532959,328
858.650574,324
858.768188,304
858.885803,306
859.003479,324
859.121094,323
859.23877,320
859.356384,325
859.473999,309
859.591675,316
859.709229,329
859.826843,312
859.944458,314
860.062012,302
860.179626,311
860.297302,312
860.414856,304
860.532471,315
860.650024,314
860.767639,322
860.885193,318
861.002808,315
861.120361,325
861.237976,301
861.35553,334
861.473022,320
861.590698,305
861.708191,312
861.825745,314
861.943298,315
862.060852,322
862.178406,313
862.295959,321
862.413513,318
862.531006,307
862.64856,303
862.766113,314
862.883667,310
863.00116,318
863.118713,317
863.236206,308
863.353699,318
863.471252,326
863.588745,320
863.706177,328
863.82373,311
863.941162,314
864.058716,329
864.176208,318
864.29364,314
864.411194,314
864.528687,311
864.646118,319
864.763611,308
864.881042,310
864.998535,318
865.116028,328
865.233459,303
865.350891,318
865.468384,320
865.585754,307
865.703308,304
865.820679,315
865.938171,312
866.055542,318
866.173035,315
866.290466,318
866.407837,309
866.52533,316
866.6427,319
866.760071,314
866.877563,308
866.994934,306
867.112305,300
867.229736,329
867.347107,326
867.464539,331
867.58197,306
867.699341,305
867.81665,314
867.934082,315
868.051453,322
868.168823,313
868.286194,306
868.403564,325
868.520935,308
868.638306,322
868.755676,334
868.872986,322
868.990295,307
869.107727,311
869.225037,319
869.342346,323
869.459717,315
869.577026,331
869.694336,314
869.811707,310
869.929016,328
870.046326,326
870.163635,314
870.280945,339
870.398254,315
870.515564,327
870.632812,309
870.750183,322
870.867432,318
870.984741,329
871.102051,309
871.219299,307
871.336609,312
871.453918,313
871.571106,310
871.688416,302
871.805664,311
871.922852,319
872.040222,310
872.157471,317
872.274719,322
872.391968,327
872.509155,311
872.626465,317
872.743652,314
872.860962,321
872.978149,315
873.095337,319
873.212646,308
873.329834,318
873.44696,306
873.564209,303
873.681396,313
873.798645,311
873.915894,308
874.03302,327
874.150208,309
874.267456,319
874.384583,307
874.501831,316
874.618958,321
874.736145,331
874.853333,310
874.970459,328
875.087646,320
875.204834,325
875.32196,315
875.439148,331
875.556274,329
875.673401,314
875.790527,321
875.907715,324
876.024841,323
876.141968,312
876.259094,324
876.376282,326
876.493347,318
876.610474,327
876.7276,321
876.844727,312
876.961853,317
877.078918,317
877.195984,327
877.313171,312
877.430237,306
877.547302,309
877.664368,326
877.781433,325
877.898499,312
878.015625,309
878.13269,322
878.249695,323
878.366821,312
878.483887,321
878.600952,308
878.717957,316
878.834961,308
878.952087,308
879.069092,324
879.186157,320
879.303162,313
879.420227,325
879.537231,327
879.654236,318
879.77124,323
879.888306,321
880.005249,307
880.122314,327
880.239319,315
880.356323,313
880.473328,308
880.590271,321
880.707275,310
880.824341,318
880.941284,310
881.058228,311
881.175232,295
881.292236,323
881.40918,307
881.526123,305
881.643066,323
881.760071,312
881.877014,332
881.993958,323
882.11084,308
882.227783,303
882.344727,296
882.46167,320
882.578613,310
882.695618,322
882.812439,319
882.929382,324
883.046326,309
883.163208,324
883.280151,323
883.397034,330
883.513916,307
883.630798,313
883.747742,323
883.864563,319
883.981506,304
884.098389,316
884.21521,317
884.332153,312
884.448975,316
884.565796,316
884.682678,300
884.7995,315
884.916443,322
885.033264,314
885.150085,318
885.266968,318
885.383789,319
885.500671,320
885.617493,316
885.734314,331
885.851196,328
885.967896,332
886.084717,313
886.201599,331
886.318359,326
886.435181,321
886.552002,306
886.668762,329
886.785645,316
886.902344,319
887.019165,312
887.135925,317
887.252747,325
887.369446,304
887.486267,309
887.603027,320
887.719788,308
887.836548,320
887.953247,301
888.070068,321
888.186829,309
888.303528,310
888.420288,322
888.536987,313
888.653687,322
888.770447,319
888.887146,313
889.003967,326
889.120667,299
889.237305,316
889.354065,312
889.470703,315
889.587463,305
889.704163,305
889.820862,323
889.937561,326
890.054199,298
890.170837,310
890.287598,307
890.404236,317
890.520874,325
890.637634,316
890.754211,323
890.87085,319
890.987549,315
891.104187,324
891.220886,331
891.337463,327
891.454102,316
891.57074,327
891.687378,313
891.804077,315
891.920654,312
892.037231,317
892.15387,309
892.270447,313
892.387085,304
892.503723,327
892.6203,306
892.736877,329
892.853516,312
892.970032,324
893.08667,307
893.203186,320
893.319763,311
893.43634,315
893.552917,317
893.669556,317
893.786011,319
893.902588,317
894.019165,316
894.135681,326
894.252197,302
894.368835,326
894.485291,321
894.601868,315
894.718384,320
894.8349,311
894.951355,318
895.067932,317
895.184448,320
895.300964,327
895.417419,322
895.533936,308
895.650452,322
895.766907,319
895.883423,327
895.999878,313
896.116333,316
896.232849,325
896.349304,305
896.465759,331
896.582214,322
896.698669,316
896.815125,314
896.931641,333
897.048035,302
897.164551,342
897.280884,315
897.397339,318
897.513794,301
897.630249,328
897.746582,311
897.863098,325
897.979431,295
898.095886,319
898.212341,323
898.328674,327
898.445129,316
898.561462,320
898.677795,313
898.794312,319
898.910645,312
899.026978,323
899.143433,310
899.259766,328
899.37616,305
899.492493,311
899.608765,311
899.725159,327
899.841553,309
899.957947,327
900.07428,319
900.190552,315
900.306946,313
900.423157,319
900.53949,304
900.655884,317
900.772156,307
900.888489,319
901.004822,319
901.121033,313
901.237366,321
901.353699,314
901.46991,312
901.586304,321
901.702515,329
901.818787,309
901.93512,310
902.051331,326
902.167603,304
902.283875,322
902.400085,314
902.516418,314
902.632629,322
902.74884,312
902.865112,307
902.981384,324
903.097595,313
903.213867,315
903.330017,302
903.446289,332
903.5625,308
903.67865,307
903.794922,328
903.911072,316
904.027344,310
904.143494,307
904.259705,312
904.375916,312
904.492065,317
904.608215,312
904.724426,315
904.840576,310
904.956726,312
905.072876,318
905.189087,316
905.305176,318
905.421387,310
905.537537,319
905.653687,301
905.769775,326
905.885925,302
906.002014,308
906.118164,314
906.234314,314
906.350403,310
906.466492,303
906.582642,313
906.69873,320
906.814758,304
906.930908,331
907.046936,323
907.163086,316
907.279175,305
907.395264,311
907.511353,306
907.62738,320
907.743408,308
907.859497,321
907.975525,312
908.091553,325
908.207703,322
908.32373,318
908.439758,317
908.555786,317
908.671814,323
908.787842,309
908.90387,318
909.019775,325
909.135864,303
909.251892,320
909.367859,329
909.483826,324
909.599854,319
909.715881,322
909.831848,318
909.947815,316
910.063782,299
910.179749,323
910.295776,306
910.411743,307
910.527649,320
910.643616,318
910.759583,314
910.875488,321
910.991455,313
911.107361,335
911.223267,308
911.339294,339
911.4552,322
911.571106,312
911.687073,307
911.802979,323
911.918823,305
912.034729,319
912.150635,317
912.266602,315
912.382446,307
912.498352,316
912.614197,306
912.730103,347
912.846008,305
792.44574,314
792.56488,346
792.68396,391
792.80304,360
792.92218,332
793.041199,319
793.160339,316
793.279419,332
793.398499,330
793.517578,310
793.636658,326
793.755737,324
793.874817,345
793.993896,359
794.112976,334
794.232056,321
794.351074,314
794.470215,325
794.589233,329
794.708313,312
794.827393,330
794.946411,334
795.065552,340
795.18457,330
795.303589,331
795.422668,320
795.541687,326
795.660767,322
795.779846,332
795.898865,334
796.017883,324
796.136963,335
796.255981,326
796.375061,323
796.49408,319
796.613037,328
796.732117,324
796.851135,339
796.970154,333
797.089233,326
797.208191,329
797.327271,322
797.446228,324
797.565186,352
797.684265,326
797.803223,327
797.922241,316
798.04126,327
798.160278,326
798.279297,333
798.398315,339
798.517273,320
798.636292,324
798.75531,342
798.874268,321
798.993286,327
799.112244,331
799.231323,337
799.350281,325
799.469238,323
799.588257,322
799.707153,329
799.826111,321
799.945129,330
800.064087,315
800.183044,319
800.302063,336
800.421021,343
800.539978,318
800.658936,308
800.777893,321
800.896912,321
801.015747,331
801.134705,328
801.253723,329
801.37262,316
801.491638,334
801.610535,314
801.729492,324
801.84845,327
801.967407,318
802.086243,323
802.205261,327
802.324158,318
802.443115,330
802.562073,321
802.680969,330
802.799927,321
802.918762,334
803.037659,328
803.156677,325
803.275574,328
803.39447,317
803.513428,326
803.632263,317
803.751221,326
803.870117,317
803.989014,328
804.107971,329
804.226746,327
804.345642,330
804.4646,319
804.583496,340
804.702393,332
804.821228,316
804.940125,317
805.059021,331
805.177917,329
805.296814,322
805.415649,326
805.534546,330
805.653442,327
805.772278,322
805.891113,334
806.01001,325
806.128906,333
806.247742,322
806.366577,325
806.485413,338
806.604309,308
806.723145,336
806.84198,337
806.960876,329
807.079712,339
807.198486,325
807.317383,313
807.436218,323
807.554993,327
807.673889,335
807.792725,313
807.91156,331
808.030396,332
808.14917,332
808.268005,327
808.386841,320
808.505676,307
808.624451,317
808.743286,323
808.862122,338
808.980896,320
809.099731,328
809.218506,331
809.337341,324
809.456116,332
809.57489,321
809.693726,331
809.8125,324
809.931274,333
810.050049,339
810.168884,337
810.287659,319
810.406372,333
810.525269,316
810.643982,331
810.762756,320
810.881531,320
811.000305,322
811.11908,326
811.237854,328
811.356567,323
811.475403,327
811.594116,324
811.71283,324
811.831604,332
811.950378,334
812.069153,344
812.187927,340
812.30658,334
812.425415,324
812.544128,329
812.662781,322
812.781616,321
812.900269,327
813.019043,319
813.137756,330
813.256531,318
813.375244,326
813.493896,325
813.612671,329
813.731384,344
813.850037,328
813.96875,336
814.087524,334
814.206238,333
814.324951,327
814.443604,325
814.562256,328
814.68103,317
814.799683,340
814.918335,328
815.037109,325
815.155762,328
815.274475,327
815.393188,331
815.511841,336
815.630554,316
815.749146,317
815.867859,329
815.986572,323
816.105164,320
816.223877,331
816.342529,330
816.461182,330
816.579895,312
816.698486,324
816.817139,330
816.935791,323
817.054504,333
817.173096,340
817.291748,324
817.4104,327
817.529053,332
817.647644,329
817.766235,324
817.884949,321
818.00354,328
818.122192,319
818.240845,319
818.359436,326
818.478088,325
818.59668,318
818.715271,326
818.833923,324
818.952515,310
819.071106,324
819.189758,324
819.30835,316
819.426941,323
819.545532,311
819.664124,325
819.782715,308
819.901306,315
820.019897,325
820.138489,324
820.25708,315
820.375671,313
820.494202,314
820.612732,314
820.731384,330
820.849915,313
820.968506,324
821.087097,313
821.205627,321
821.324158,333
821.442749,317
821.561279,315
821.679871,321
821.798401,308
821.916931,320
822.035461,315
822.154053,321
822.272583,307
822.391174,324
822.509583,319
822.628174,321
822.746704,324
822.865234,319
822.983765,315
823.102295,313
823.220825,316
823.339294,323
823.457825,329
823.576355,310
823.694824,325
823.813354,316
823.931885,323
824.050354,309
824.168884,314
824.287354,316
824.405823,322
824.524353,300
824.642822,322
824.761353,312
824.879822,314
824.998291,319
825.116699,317
825.235291,316
825.353699,325
825.472168,324
825.590637,319
825.709106,324
825.827576,320
825.946045,313
826.064453,323
826.182983,309
826.301392,312
826.4198,311
826.53833,324
826.656738,310
826.775208,311
826.893677,301
827.012024,331
827.130493,303
827.248962,323
827.36731,311
827.485779,317
827.604248,312
827.722595,314
827.841064,320
827.959412,313
828.077942,309
828.196289,313
828.314636,321
828.433105,334
828.551514,318
828.669861,305
828.78833,307
828.906677,310
829.025085,314
829.143433,317
829.261841,312
829.38031,317
829.498657,312
829.617004,325
829.735413,315
829.85376,319
829.972107,317
830.090515,314
830.208862,307
830.327209,316
830.445557,316
830.563904,323
830.682312,315
830.800659,326
830.919006,309
831.037354,314
831.155701,312
831.274048,308
831.392395,321
831.51062,322
831.629028,308
831.747314,310
831.865662,321
831.984009,329
832.102356,312
832.220642,313
832.338928,316
832.457275,317
832.575623,311
832.693909,321
832.812134,322
832.930481,321
833.048828,320
833.167114,335
833.2854,318
833.403687,307
833.521973,313
833.640259,319
833.758545,321
833.876831,328
833.995056,330
834.113281,328
834.231628,309
834.349915,323
834.468201,321
834.586426,321
834.704651,311
834.822998,321
834.941162,303
835.059448,315
835.177673,310
835.295959,316
835.414246,327
835.53241,305
835.650635,315
835.768921,315
835.887146,317
836.005371,329
836.123596,314
836.241821,324
836.360046,319
836.478271,326
836.596497,317
836.714722,314
836.832886,309
836.95105,313
837.069336,316
837.1875,306
837.305725,309
837.423889,316
837.542053,310
837.660339,305
837.778503,323
837.896667,314
838.014832,311
838.132996,311
838.25116,315
838.369385,324
838.487488,317
838.605713,312
838.723877,306
838.84198,306
838.960205,312
839.078308,308
839.196472,327
839.314636,311
839.4328,313
839.550964,322
839.669067,320
839.787231,310
839.905396,326
840.023499,315
840.141602,316
840.259766,330
840.377869,322
840.495972,310
840.614136,332
840.732239,317
840.850342,322
840.968445,317
841.086548,305
841.204651,322
841.322754,311
841.440918,328
841.55896,315
841.677002,313
841.795166,313
841.913208,325
842.031311,324
842.149353,322
842.267456,322
842.385498,321
842.503601,324
842.621643,307
842.739746,304
842.857788,318
842.97583,314
843.093933,316
843.211975,320
843.330017,311
843.44812,314
843.566101,320
843.684204,319
843.802246,328
843.920227,308
844.038269,301
844.156311,326
844.274292,328
844.392395,306
844.510376,320
844.628357,316
844.74646,321
844.864441,308
844.982422,324
845.100403,322
845.218384,320
845.336426,311
845.454468,320
845.572449,311
845.69043,324
845.808411,286
845.926453,326
846.044373,309
846.162354,323
846.280396,322
846.398315,314
846.516296,322
846.634216,324
846.752197,302
846.870178,323
846.988098,310
847.106079,325
847.22406,315
847.34198,322
847.4599,329
847.577881,328
847.695801,323
847.813782,309
847.931641,321
848.049561,315
848.167603,314
848.285461,328
848.403381,314
848.521362,314
848.639221,303
848.75708,323
848.875,322
848.99292,314
849.110901,330
849.22876,320
849.34668,323
849.464539,305
849.582458,315
849.700317,320
849.818176,313
849.936096,306
850.053955,311
850.171875,330
850.289673,317
850.407593,315
850.525452,304
850.643311,318
850.761169,315
850.878967,310
850.996887,320
851.114746,327
851.232544,322
851.350403,315
851.468262,319
851.58606,318
851.703979,315
851.821777,308
851.939636,322
852.057434,322
852.175232,319
852.293091,310
852.410889,306
852.528687,317
852.646545,312
852.764343,311
852.88208,324
852.999939,321
853.117676,310
853.235535,314
853.353271,312
853.471069,319
853.588928,313
853.706604,318
853.824402,318
853.9422,312
854.059998,313
854.177734,313
854.295532,306
854.413269,319
854.531006,317
854.648804,316
854.766541,312
854.884277,322
855.002014,320
855.119751,330
855.237549,302
855.355225,317
855.473022,313
855.590698,318
855.708435,313
855.826172,315
855.943848,315
856.061646,305
856.179321,312
856.296997,318
856.414795,309
856.53241,314
856.650085,310
856.767822,303
856.885559,313
857.003174,308
857.120911,311
857.238586,324
857.356201,310
857.473938,332
857.591614,321
857.709351,315
857.826965,319
857.944641,322
858.062317,321
858.179993,299
858.297668,313
858.415283,310
858.532959,333
858.650574,323
858.768188,312
858.885803,326
859.003479,302
859.121094,326
859.23877,320
859.356384,320
859.473999,302
859.591675,311
859.709229,324
859.826843,321
859.944458,313
860.062012,322
860.179626,317
860.297302,331
860.414856,308
860.532471,317
860.650024,320
860.767639,322
860.885193,310
861.002808,320
861.120361,319
861.237976,322
861.35553,313
861.473022,310
861.590698,311
861.708191,319
861.825745,325
861.943298,311
862.060852,313
862.178406,322
862.295959,308
862.413513,323
862.531006,307
862.64856,326
862.766113,321
862.883667,314
863.00116,321
863.118713,317
863.236206,318
863.353699,322
863.471252,315
863.588745,317
863.706177,311
863.82373,320
863.941162,330
864.058716,315
864.176208,314
864.29364,325
864.411194,318
864.528687,322
864.646118,312
864.763611,316
864.881042,317
864.998535,315
865.116028,319
865.233459,309
865.350891,324
865.468384,326
865.585754,315
865.703308,325
865.820679,314
865.938171,322
866.055542,318
866.173035,330
866.290466,319
866.407837,312
866.52533,305
866.6427,312
866.760071,316
866.877563,332
866.994934,315
867.112305,331
867.229736,321
867.347107,318
867.464539,319
867.58197,327
867.699341,324
867.81665,312
867.934082,321
868.051453,321
868.168823,319
868.286194,311
868.403564,304
868.520935,311
868.638306,322
868.755676,319
868.872986,314
868.990295,333
869.107727,306
869.225037,327
869.342346,319
869.459717,316
869.577026,315
869.694336,321
869.811707,325
869.929016,305
870.046326,323
870.163635,320
870.280945,331
870.398254,309
870.515564,310
870.632812,322
870.750183,308
870.867432,315
870.984741,309
871.102051,313
871.219299,307
871.336609,303
871.453918,318
871.571106,312
871.688416,295
871.805664,310
871.922852,311
872.040222,315
872.157471,306
872.274719,315
872.391968,305
872.509155,316
872.626465,317
872.743652,312
872.860962,314
872.978149,306
873.095337,315
873.212646,319
873.329834,314
873.44696,330
873.564209,321
873.681396,305
873.798645,322
873.915894,322
874.03302,304
874.150208,321
874.267456,303
874.384583,312
874.501831,327
874.618958,319
874.736145,319
874.853333,295
874.970459,321
875.087646,321
875.204834,327
875.32196,330
875.439148,310
875.556274,331
875.673401,308
875.790527,309
875.907715,320
876.024841,311
876.141968,316
876.259094,332
876.376282,320
876.493347,319
876.610474,313
876.7276,307
876.844727,307
876.961853,324
877.078918,336
877.195984,321
877.313171,322
877.430237,325
877.547302,327
877.664368,318
877.781433,304
877.898499,333
878.015625,311
878.13269,320
878.249695,317
878.366821,320
878.483887,306
878.600952,319
878.717957,313
878.834961,328
878.952087,310
879.069092,323
879.186157,319
879.303162,314
879.420227,310
879.537231,314
879.654236,323
879.77124,318
879.888306,311
880.005249,332
880.122314,317
880.239319,305
880.356323,312
880.473328,310
880.590271,320
880.707275,314
880.824341,316
880.941284,320
881.058228,307
881.175232,320
881.292236,324
881.40918,328
881.526123,310
881.643066,320
881.760071,310
881.877014,319
881.993958,314
882.11084,311
882.227783,301
882.344727,313
882.46167,320
882.578613,314
882.695618,311
882.812439,323
882.929382,316
883.046326,317
883.163208,320
883.280151,327
883.397034,308
883.513916,322
883.630798,312
883.747742,297
883.864563,320
883.981506,324
884.098389,329
884.21521,320
884.332153,315
884.448975,320
884.565796,321
884.682678,311
884.7995,311
884.916443,327
885.033264,316
885.150085,317
885.266968,311
885.383789,315
885.500671,330
885.617493,309
885.734314,318
885.851196,315
885.967896,322
886.084717,315
886.201599,314
886.318359,315
886.435181,310
886.552002,307
886.668762,310
886.785645,305
886.902344,326
887.019165,325
887.135925,308
887.252747,325
887.369446,325
887.486267,316
887.603027,312
887.719788,328
887.836548,324
887.953247,329
888.070068,300
888.186829,326
888.303528,313
888.420288,330
888.536987,312
888.653687,314
888.770447,315
888.887146,312
889.003967,324
889.120667,329
889.237305,322
889.354065,325
889.470703,323
889.587463,322
889.704163,307
889.820862,318
889.937561,314
890.054199,321
890.170837,325
890.287598,333
890.404236,326
890.520874,317
890.637634,331
890.754211,320
890.87085,317
890.987549,317
891.104187,318
891.220886,311
891.337463,327
891.454102,325
891.57074,309
891.687378,318
891.804077,314
891.920654,327
892.037231,310
892.15387,320
892.270447,319
892.387085,319
892.503723,328
892.6203,326
892.736877,314
892.853516,324
892.970032,320
893.08667,321
893.203186,300
893.319763,298
893.43634,318
893.552917,319
893.669556,320
893.786011,321
893.902588,314
894.019165,321
894.135681,311
894.252197,330
894.368835,308
894.485291,324
894.601868,316
894.718384,321
894.8349,314
894.951355,321
895.067932,331
895.184448,311
895.300964,310
895.417419,316
895.533936,314
895.650452,325
895.766907,310
895.883423,313
895.999878,301
896.116333,328
896.232849,305
896.349304,313
896.465759,324
896.582214,321
896.698669,328
896.815125,318
896.931641,299
897.048035,316
897.164551,311
897.280884,321
897.397339,323
897.513794,326
897.630249,318
897.746582,325
897.863098,309
897.979431,324
898.095886,314
898.212341,313
898.328674,312
898.445129,311
898.561462,313
898.677795,320
898.794312,325
898.910645,327
899.026978,323
899.143433,317
899.259766,312
899.37616,314
899.492493,321
899.608765,330
899.725159,314
899.841553,314
899.957947,306
900.07428,316
900.190552,329
900.306946,326
900.423157,317
900.53949,325
900.655884,325
900.772156,311
900.888489,326
901.004822,334
901.121033,309
901.237366,325
901.353699,321
901.46991,324
901.586304,302
901.702515,303
901.818787,322
901.93512,322
902.051331,319
902.167603,322
902.283875,313
902.400085,329
902.516418,316
902.632629,322
902.74884,317
902.865112,317
902.981384,323
903.097595,326
903.213867,320
903.330017,329
903.446289,314
903.5625,320
903.67865,339
903.794922,326
903.911072,311
904.027344,316
904.143494,324
904.259705,319
904.375916,322
904.492065,309
904.608215,306
904.724426,329
904.840576,308
904.956726,319
905.072876,326
905.189087,326
905.305176,311
905.421387,315
905.537537,309
905.653687,313
905.769775,301
905.885925,327
906.002014,320
906.118164,327
906.234314,314
906.350403,323
906.466492,318
906.582642,322
906.69873,309
906.814758,317
906.930908,325
907.046936,331
907.163086,332
907.279175,329
907.395264,314
907.511353,317
907.62738,323
907.743408,315
907.859497,298
907.975525,314
908.091553,321
908.207703,312
908.32373,323
908.439758,325
908.555786,321
908.671814,327
908.787842,321
908.90387,316
909.019775,318
909.135864,334
909.251892,313
909.367859,331
909.483826,318
909.599854,309
909.715881,327
909.831848,308
909.947815,309
910.063782,320
910.179749,324
910.295776,326
910.411743,311
910.527649,334
910.643616,319
910.759583,317
910.875488,318
910.991455,323
911.107361,324
911.223267,336
911.339294,312
911.4552,324
911.571106,313
911.687073,323
911.802979,316
911.918823,321
912.034729,324
912.150635,319
912.266602,321
912.382446,318
912.498352,316
912.614197,315
912.730103,316
912.846008,310
792.44574,306
792.56488,351
792.68396,406
792.80304,403
792.92218,332
793.041199,319
793.160339,326
793.279419,344
793.398499,329
793.517578,320
793.636658,314
793.755737,335
793.874817,344
793.993896,337
794.112976,329
794.232056,338
794.351074,310
794.470215,335
794.589233,327
794.708313,317
794.827393,321
794.946411,336
795.065552,332
795.18457,331
795.303589,332
795.422668,322
795.541687,335
795.660767,328
795.779846,330
795.898865,322
796.017883,314
796.136963,325
796.255981,327
796.375061,324
796.49408,328
796.613037,333
796.732117,324
796.851135,335
796.970154,315
797.089233,321
797.208191,326
797.327271,325
797.446228,321
797.565186,334
797.684265,324
797.803223,318
797.922241,320
798.04126,330
798.160278,323
798.279297,317
798.398315,325
798.517273,322
798.636292,325
798.75531,332
798.874268,321
798.993286,315
799.112244,330
799.231323,327
799.350281,325
799.469238,327
799.588257,320
799.707153,337
799.826111,348
799.945129,328
800.064087,324
800.183044,315
800.302063,324
800.421021,325
800.539978,323
800.658936,328
800.777893,312
800.896912,329
801.015747,321
801.134705,331
801.253723,337
801.37262,343
801.491638,328
801.610535,327
801.729492,323
801.84845,325
801.967407,325
802.086243,330
802.205261,320
802.324158,325
802.443115,326
802.562073,342
802.680969,326
802.799927,325
802.918762,315
803.037659,333
803.156677,319
803.275574,315
803.39447,337
803.513428,334
803.632263,316
803.751221,324
803.870117,334
803.989014,317
804.107971,338
804.226746,324
804.345642,331
804.4646,330
804.583496,338
804.702393,320
804.821228,329
804.940125,337
805.059021,316
805.177917,321
805.296814,335
805.415649,332
805.534546,331
805.653442,328
805.772278,336
805.891113,332
806.01001,337
806.128906,335
806.247742,331
806.366577,323
806.485413,329
806.604309,330
806.723145,337
806.84198,326
806.960876,328
807.079712,337
807.198486,334
807.317383,325
807.436218,322
807.554993,341
807.673889,323
807.792725,325
807.91156,334
808.030396,330
808.14917,324
808.268005,326
808.386841,332
808.505676,327
808.624451,343
808.743286,324
808.862122,328
808.980896,329
809.099731,313
809.218506,321
809.337341,329
809.456116,323
809.57489,330
809.693726,337
809.8125,336
809.931274,322
810.050049,323
810.168884,346
810.287659,328
810.406372,320
810.525269,318
810.643982,312
810.762756,328
810.881531,330
811.000305,325
811.11908,342
811.237854,339
811.356567,325
811.475403,334
811.594116,326
811.71283,336
811.831604,327
811.950378,324
812.069153,335
812.187927,324
812.30658,342
812.425415,327
812.544128,328
812.662781,326
812.781616,324
812.900269,336
813.019043,325
813.137756,318
813.256531,322
813.375244,326
813.493896,333
813.612671,320
813.731384,323
813.850037,322
813.96875,327
814.087524,320
814.206238,337
814.324951,335
814.443604,334
814.562256,326
814.68103,321
814.799683,320
814.918335,316
815.037109,338
815.155762,350
815.274475,326
815.393188,314
815.511841,337
815.630554,322
815.749146,324
815.867859,332
815.986572,329
816.105164,332
816.223877,343
816.342529,329
816.461182,330
816.579895,318
816.698486,328
816.817139,325
816.935791,337
817.054504,341
817.173096,335
817.291748,333
817.4104,320
817.529053,334
817.647644,324
817.766235,319
817.884949,320
818.00354,307
818.122192,336
818.240845,330
818.359436,329
818.478088,329
818.59668,315
818.715271,326
818.833923,327
818.952515,314
819.071106,329
819.189758,324
819.30835,320
819.426941,315
819.545532,326
819.664124,325
819.782715,321
819.901306,339
820.019897,334
820.138489,327
820.25708,309
820.375671,321
820.494202,307
820.612732,339
820.731384,308
820.849915,322
820.968506,328
821.087097,318
821.205627,330
821.324158,313
821.442749,306
821.561279,298
821.679871,331
821.798401,341
821.916931,324
822.035461,312
822.154053,324
822.272583,325
822.391174,315
822.509583,343
822.628174,318
822.746704,323
822.865234,311
822.983765,318
823.102295,317
823.220825,312
823.339294,328
823.457825,337
823.576355,318
823.694824,309
823.813354,315
823.931885,321
824.050354,322
824.168884,330
824.287354,308
824.405823,329
824.524353,312
824.642822,318
824.761353,309
824.879822,330
824.998291,326
825.116699,308
825.235291,312
825.353699,322
825.472168,317
825.590637,320
825.709106,301
825.827576,335
825.946045,313
826.064453,317
826.182983,305
826.301392,328
826.4198,314
826.53833,302
826.656738,323
826.775208,313
826.893677,327
827.012024,319
827.130493,315
827.248962,319
827.36731,317
827.485779,322
827.604248,330
827.722595,319
827.841064,315
827.959412,314
828.077942,321
828.196289,311
828.314636,305
828.433105,305
828.551514,321
828.669861,313
828.78833,305
828.906677,319
829.025085,324
829.143433,318
829.261841,310
829.38031,320
829.498657,320
829.617004,325
829.735413,332
829.85376,316
829.972107,324
830.090515,317
830.208862,314
830.327209,317
830.445557,320
830.563904,320
830.682312,316
830.800659,306
830.919006,318
831.037354,335
831.155701,310
831.274048,324
831.392395,323
831.51062,317
831.629028,307
831.747314,321
831.865662,317
831.984009,317
832.102356,318
832.220642,322
832.338928,331
832.457275,311
832.575623,304
832.693909,335
832.812134,302
832.930481,317
833.048828,315
833.167114,318
833.2854,321
833.403687,319
833.521973,328
833.640259,308
833.758545,305
833.876831,329
833.995056,321
834.113281,317
834.231628,326
834.349915,320
834.468201,322
834.586426,321
834.704651,320
834.822998,314
834.941162,315
835.059448,332
835.177673,312
835.295959,327
835.414246,332
835.53241,315
835.650635,318
835.768921,318
835.887146,308
836.005371,326
836.123596,308
836.241821,324
836.360046,325
836.478271,323
836.596497,304
836.714722,315
836.832886,317
836.95105,309
837.069336,309
837.1875,311
837.305725,329
837.423889,317
837.542053,314
837.660339,318
837.778503,317
837.896667,335
838.014832,311
838.132996,317
838.25116,326
838.369385,311
838.487488,331
838.605713,339
838.723877,304
838.84198,332
838.960205,318
839.078308,335
839.196472,313
839.314636,314
839.4328,326
839.550964,328
839.669067,303
839.787231,319
839.905396,301
840.023499,323
840.141602,331
840.259766,312
840.377869,318
840.495972,305
840.614136,317
840.732239,327
840.850342,318
840.968445,320
841.086548,313
841.204651,323
841.322754,314
841.440918,329
841.55896,314
841.677002,325
841.795166,305
841.913208,332
842.031311,316
842.149353,322
842.267456,311
842.385498,319
842.503601,313
842.621643,318
842.739746,322
842.857788,317
842.97583,322
843.093933,321
843.211975,315
843.330017,321
843.44812,315
843.566101,319
843.684204,311
843.802246,318
843.920227,315
844.038269,314
844.156311,317
844.274292,311
844.392395,319
844.510376,311
844.628357,317
844.74646,338
844.864441,312
844.982422,320
845.100403,318
845.218384,314
845.336426,330
845.454468,316
845.572449,321
845.69043,319
845.808411,314
845.926453,311
846.044373,317
846.162354,312
846.280396,320
846.398315,320
846.516296,310
846.634216,326
846.752197,310
846.870178,308
846.988098,318
847.106079,313
847.22406,306
847.34198,309
847.4599,315
847.577881,322
847.695801,313
847.813782,319
847.931641,324
848.049561,321
848.167603,320
848.285461,316
848.403381,321
848.521362,314
848.639221,325
848.75708,308
848.875,314
848.99292,319
849.110901,301
849.22876,316
849.34668,319
849.464539,325
849.582458,312
849.700317,316
849.818176,319
849.936096,320
850.053955,315
850.171875,309
850.289673,316
850.407593,317
850.525452,307
850.643311,325
850.761169,304
850.878967,308
850.996887,320
851.114746,323
851.232544,313
851.350403,324
851.468262,307
851.58606,332
851.703979,321
851.821777,326
851.939636,325
852.057434,320
852.175232,322
852.293091,302
852.410889,314
852.528687,313
852.646545,320
852.764343,320
852.88208,314
852.999939,327
853.117676,318
853.235535,329
853.353271,309
853.471069,310
853.588928,328
853.706604,313
853.824402,316
853.9422,308
854.059998,306
854.177734,321
854.295532,323
854.413269,316
854.531006,319
854.648804,317
854.766541,310
854.884277,319
855.002014,322
855.119751,319
855.237549,312
855.355225,323
855.473022,314
855.590698,314
855.708435,320
855.826172,313
855.943848,340
856.061646,313
856.179321,324
856.296997,325
856.414795,308
856.53241,332
856.650085,321
856.767822,315
856.885559,320
857.003174,313
857.120911,312
857.238586,330
857.356201,317
857.473938,316
857.591614,321
857.709351,321
857.826965,319
857.944641,311
858.062317,319
858.179993,315
858.297668,321
858.415283,304
858.532959,320
858.650574,320
858.768188,317
858.885803,325
859.003479,320
859.121094,312
859.23877,307
859.356384,315
859.473999,310
859.591675,332
859.709229,311
859.826843,318
859.944458,314
860.062012,330
860.179626,333
860.297302,316
860.414856,325
860.532471,321
860.650024,321
860.767639,314
860.885193,312
861.002808,322
861.120361,309
861.237976,328
861.35553,307
861.473022,305
861.590698,334
861.708191,311
861.825745,310
861.943298,309
862.060852,311
862.178406,312
862.295959,305
862.413513,326
862.531006,310
862.64856,319
862.766113,328
862.883667,320
863.00116,305
863.118713,339
863.236206,325
863.353699,327
863.471252,313
863.588745,332
863.706177,308
863.82373,306
863.941162,326
864.058716,317
864.176208,321
864.29364,317
864.411194,318
864.528687,329
864.646118,315
864.763611,315
864.881042,322
864.998535,314
865.116028,302
865.233459,315
865.350891,316
865.468384,314
865.585754,314
865.703308,315
865.820679,321
865.938171,322
866.055542,321
866.173035,319
866.290466,313
866.407837,321
866.52533,313
866.6427,304
866.760071,311
866.877563,320
866.994934,321
867.112305,312
867.229736,309
867.347107,315
867.464539,326
867.58197,332
867.699341,321
867.81665,318
867.934082,314
868.051453,308
868.168823,314
868.286194,315
868.403564,311
868.520935,316
868.638306,318
868.755676,313
868.872986,317
868.990295,331
869.107727,316
869.225037,317
869.342346,311
869.459717,326
869.577026,322
869.694336,318
869.811707,321
869.929016,318
870.046326,313
870.163635,313
870.280945,304
870.398254,324
870.515564,316
870.632812,335
870.750183,329
870.867432,316
870.984741,321
871.102051,325
871.219299,310
871.336609,318
871.453918,308
871.571106,315
871.688416,312
871.805664,324
871.922852,318
872.040222,315
872.157471,321
872.274719,318
872.391968,311
872.509155,322
872.626465,311
872.743652,322
872.860962,327
872.978149,328
873.095337,309
873.212646,317
873.329834,316
873.44696,320
873.564209,321
873.681396,310
873.798645,313
873.915894,330
874.03302,320
874.150208,316
874.267456,310
874.384583,316
874.501831,321
874.618958,317
874.736145,324
874.853333,320
874.970459,326
875.087646,326
875.204834,310
875.32196,331
875.439148,324
875.556274,329
875.673401,317
875.790527,323
875.907715,313
876.024841,321
876.141968,315
876.259094,324
876.376282,306
876.493347,321
876.610474,319
876.7276,318
876.844727,316
876.961853,307
877.078918,335
877.195984,306
877.313171,313
877.430237,327
877.547302,297
877.664368,310
877.781433,330
877.898499,317
878.015625,319
878.13269,324
878.249695,312
878.366821,328
878.483887,316
878.600952,329
878.717957,316
878.834961,320
878.952087,319
879.069092,332
879.186157,317
879.303162,320
879.420227,327
879.537231,324
879.654236,321
879.77124,322
879.888306,312
880.005249,331
880.122314,312
880.239319,332
880.356323,298
880.473328,314
880.590271,308
880.707275,320
880.824341,308
880.941284,319
881.058228,308
881.175232,314
881.292236,329
881.40918,322
881.526123,312
881.643066,325
881.760071,324
881.877014,324
881.993958,311
882.11084,311
882.227783,313
882.344727,326
882.46167,320
882.578613,321
882.695618,308
882.812439,321
882.929382,312
883.046326,312
883.163208,311
883.280151,310
883.397034,308
883.513916,311
883.630798,310
883.747742,321
883.864563,305
883.981506,308
884.098389,332
884.21521,322
884.332153,310
884.448975,325
884.565796,312
884.682678,318
884.7995,304
884.916443,331
885.033264,324
885.150085,321
885.266968,316
885.383789,320
885.500671,311
885.617493,306
885.734314,324
885.851196,321
885.967896,313
886.084717,334
886.201599,317
886.318359,308
886.435181,318
886.552002,321
886.668762,313
886.785645,325
886.902344,305
887.019165,322
887.135925,319
887.252747,321
887.369446,319
887.486267,310
887.603027,315
887.719788,304
887.836548,312
887.953247,331
888.070068,311
888.186829,320
888.303528,304
888.420288,323
888.536987,320
888.653687,325
888.770447,317
888.887146,323
889.003967,308
889.120667,316
889.237305,315
889.354065,318
889.470703,321
889.587463,328
889.704163,315
889.820862,320
889.937561,327
890.054199,318
890.170837,312
890.287598,311
890.404236,317
890.520874,326
890.637634,314
890.754211,321
890.87085,315
890.987549,318
891.104187,327
891.220886,321
891.337463,302
891.454102,328
891.57074,318
891.687378,340
891.804077,316
891.920654,319
892.037231,321
892.15387,314
892.270447,313
892.387085,329
892.503723,308
892.6203,319
892.736877,321
892.853516,314
892.970032,319
893.08667,321
893.203186,330
893.319763,318
893.43634,320
893.552917,313
893.669556,302
893.786011,314
893.902588,332
894.019165,330
894.135681,318
894.252197,326
894.368835,318
894.485291,317
894.601868,323
894.718384,315
894.8349,330
894.951355,315
895.067932,304
895.184448,315
895.300964,321
895.417419,318
895.533936,301
895.650452,329
895.766907,312
895.883423,321
895.999878,315
896.116333,317
896.232849,301
896.349304,308
896.465759,317
896.582214,314
896.698669,319
896.815125,318
896.931641,328
897.048035,320
897.164551,309
897.280884,325
897.397339,314
897.513794,319
897.630249,312
897.746582,310
897.863098,324
897.979431,319
898.095886,325
898.212341,321
898.328674,311
898.445129,321
898.561462,326
898.677795,324
898.794312,302
898.910645,314
899.026978,314
899.143433,316
899.259766,315
899.37616,320
899.492493,313
899.608765,301
899.725159,323
899.841553,311
899.957947,320
900.07428,314
900.190552,321
900.306946,319
900.423157,320
900.53949,311
900.655884,320
900.772156,322
900.888489,324
901.004822,323
901.121033,316
901.237366,317
901.353699,309
901.46991,309
901.586304,316
901.702515,325
901.818787,313
901.93512,312
902.051331,318
902.167603,326
902.283875,317
902.400085,323
902.516418,323
902.632629,321
902.74884,324
902.865112,320
902.981384,313
903.097595,330
903.213867,314
903.330017,328
903.446289,315
903.5625,312
903.67865,307
903.794922,314
903.911072,305
904.027344,316
904.143494,318
904.259705,319
904.375916,305
904.492065,320
904.608215,317
904.724426,322
904.840576,302
904.956726,316
905.072876,325
905.189087,325
905.305176,304
905.421387,335
905.537537,315
905.653687,317
905.769775,320
905.885925,322
906.002014,317
906.118164,329
906.234314,309
906.350403,307
906.466492,306
906.582642,314
906.69873,312
906.814758,337
906.930908,319
907.046936,326
907.163086,320
907.279175,321
907.395264,320
907.511353,324
907.62738,304
907.743408,335
907.859497,318
907.975525,322
908.091553,318
908.207703,324
908.32373,302
908.439758,315
908.555786,327
908.671814,318
908.787842,318
908.90387,317
909.019775,318
909.135864,308
909.251892,304
909.367859,318
909.483826,325
909.599854,319
909.715881,320
909.831848,332
909.947815,314
910.063782,334
910.179749,316
910.295776,327
910.411743,319
910.527649,320
910.643616,326
910.759583,313
910.875488,329
910.991455,321
911.107361,303
911.223267,324
911.339294,313
911.4552,329
911.571106,319
911.687073,324
911.802979,322
911.918823,316
912.034729,328
912.150635,318
912.266602,299
912.382446,335
912.498352,319
912.614197,321
912.730103,329
912.846008,313
