792.44574,290
792.56488,344
792.68396,397
792.80304,373
792.92218,327
793.041199,300
793.160339,302
793.279419,321
793.398499,318
793.517578,302
793.636658,305
793.755737,320
793.874817,330
793.993896,332
794.112976,322
794.232056,321
794.351074,307
794.470215,319
794.589233,313
794.708313,332
794.827393,321
794.946411,330
795.065552,310
795.18457,329
795.303589,341
795.422668,324
795.541687,319
795.660767,330
795.779846,322
795.898865,319
796.017883,321
796.136963,320
796.255981,323
796.375061,317
796.49408,333
796.613037,310
796.732117,330
796.851135,312
796.970154,318
797.089233,332
797.208191,325
797.327271,322
797.446228,321
797.565186,322
797.684265,331
797.803223,325
797.922241,318
798.04126,321
798.160278,334
798.279297,326
798.398315,328
798.517273,328
798.636292,344
798.75531,308
798.874268,327
798.993286,306
799.112244,331
799.231323,314
799.350281,335
799.469238,331
799.588257,304
799.707153,320
799.826111,310
799.945129,310
800.064087,314
800.183044,320
800.302063,322
800.421021,324
800.539978,312
800.658936,326
800.777893,317
800.896912,306
801.015747,319
801.134705,332
801.253723,318
801.37262,323
801.491638,320
801.610535,308
801.729492,326
801.84845,334
801.967407,305
802.086243,316
802.205261,336
802.324158,325
802.443115,323
802.562073,324
802.680969,322
802.799927,322
802.918762,317
803.037659,313
803.156677,316
803.275574,322
803.39447,314
803.513428,326
803.632263,332
803.751221,315
803.870117,326
803.989014,325
804.107971,325
804.226746,321
804.345642,322
804.4646,318
804.583496,316
804.702393,321
804.821228,319
804.940125,311
805.059021,325
805.177917,313
805.296814,322
805.415649,333
805.534546,317
805.653442,318
805.772278,318
805.891113,320
806.01001,312
806.128906,310
806.247742,313
806.366577,320
806.485413,324
806.604309,321
806.723145,314
806.84198,312
806.960876,319
807.079712,325
807.198486,322
807.317383,325
807.436218,312
807.554993,309
807.673889,315
807.792725,330
807.91156,315
808.030396,331
808.14917,332
808.268005,325
808.386841,311
808.505676,329
808.624451,318
808.743286,324
808.862122,308
808.980896,331
809.099731,334
809.218506,319
809.337341,315
809.456116,299
809.57489,325
809.693726,314
809.8125,332
809.931274,332
810.050049,319
810.168884,327
810.287659,305
810.406372,324
810.525269,311
810.643982,327
810.762756,326
810.881531,322
811.000305,312
811.11908,316
811.237854,317
811.356567,332
811.475403,315
811.594116,318
811.71283,314
811.831604,331
811.950378,326
812.069153,323
812.187927,322
812.30658,330
812.425415,317
812.544128,322
812.662781,321
812.781616,312
812.900269,317
813.019043,320
813.137756,319
813.256531,323
813.375244,328
813.493896,309
813.612671,334
813.731384,332
813.850037,312
813.96875,320
814.087524,317
814.206238,325
814.324951,320
814.443604,318
814.562256,316
814.68103,323
814.799683,319
814.918335,309
815.037109,313
815.155762,318
815.274475,318
815.393188,309
815.511841,330
815.630554,328
815.749146,321
815.867859,308
815.986572,322
816.105164,314
816.223877,330
816.342529,323
816.461182,317
816.579895,324
816.698486,322
816.817139,323
816.935791,311
817.054504,322
817.173096,328
817.291748,315
817.4104,328
817.529053,314
817.647644,316
817.766235,321
817.884949,308
818.00354,320
818.122192,325
818.240845,315
818.359436,323
818.478088,322
818.59668,316
818.715271,323
818.833923,329
818.952515,311
819.071106,315
819.189758,324
819.30835,332
819.426941,318
819.545532,315
819.664124,323
819.782715,321
819.901306,318
820.019897,313
820.138489,319
820.25708,324
820.375671,316
820.494202,328
820.612732,317
820.731384,319
820.849915,319
820.968506,334
821.087097,310
821.205627,314
821.324158,312
821.442749,306
821.561279,309
821.679871,335
821.798401,335
821.916931,312
822.035461,318
822.154053,319
822.272583,320
822.391174,324
822.509583,317
822.628174,307
822.746704,321
822.865234,322
822.983765,316
823.102295,328
823.220825,331
823.339294,332
823.457825,311
823.576355,313
823.694824,316
823.813354,319
823.931885,321
824.050354,315
824.168884,309
824.287354,326
824.405823,311
824.524353,330
824.642822,313
824.761353,319
824.879822,328
824.998291,317
825.116699,322
825.235291,306
825.353699,323
825.472168,314
825.590637,303
825.709106,324
825.827576,303
825.946045,305
826.064453,307
826.182983,324
826.301392,320
826.4198,323
826.53833,331
826.656738,306
826.775208,319
826.893677,326
827.012024,308
827.130493,312
827.248962,321
827.36731,327
827.485779,311
827.604248,310
827.722595,317
827.841064,310
827.959412,323
828.077942,335
828.196289,307
828.314636,315
828.433105,310
828.551514,318
828.669861,307
828.78833,324
828.906677,319
829.025085,316
829.143433,312
829.261841,300
829.38031,323
829.498657,322
829.617004,309
829.735413,306
829.85376,308
829.972107,304
830.090515,310
830.208862,309
830.327209,318
830.445557,323
830.563904,321
830.682312,306
830.800659,301
830.919006,314
831.037354,309
831.155701,316
831.274048,325
831.392395,313
831.51062,318
831.629028,313
831.747314,324
831.865662,326
831.984009,297
832.102356,313
832.220642,311
832.338928,320
832.457275,312
832.575623,309
832.693909,315
832.812134,317
832.930481,335
833.048828,308
833.167114,318
833.2854,316
833.403687,323
833.521973,306
833.640259,319
833.758545,322
833.876831,327
833.995056,322
834.113281,313
834.231628,319
834.349915,315
834.468201,334
834.586426,309
834.704651,317
834.822998,325
834.941162,319
835.059448,311
835.177673,327
835.295959,305
835.414246,319
835.53241,325
835.650635,311
835.768921,315
835.887146,327
836.005371,310
836.123596,322
836.241821,317
836.360046,314
836.478271,310
836.596497,317
836.714722,321
836.832886,326
836.95105,315
837.069336,316
837.1875,315
837.305725,309
837.423889,330
837.542053,310
837.660339,311
837.778503,322
837.896667,321
838.014832,319
838.132996,326
838.25116,332
838.369385,317
838.487488,316
838.605713,311
838.723877,322
838.84198,313
838.960205,311
839.078308,314
839.196472,315
839.314636,314
839.4328,318
839.550964,316
839.669067,302
839.787231,327
839.905396,313
840.023499,319
840.141602,305
840.259766,315
840.377869,317
840.495972,317
840.614136,310
840.732239,302
840.850342,316
840.968445,318
841.086548,326
841.204651,301
841.322754,299
841.440918,322
841.55896,299
841.677002,316
841.795166,315
841.913208,303
842.031311,321
842.149353,323
842.267456,316
842.385498,319
842.503601,311
842.621643,307
842.739746,316
842.857788,310
842.97583,310
843.093933,315
843.211975,327
843.330017,325
843.44812,316
843.566101,332
843.684204,315
843.802246,319
843.920227,316
844.038269,322
844.156311,312
844.274292,315
844.392395,307
844.510376,323
844.628357,317
844.74646,317
844.864441,305
844.982422,332
845.100403,325
845.218384,321
845.336426,304
845.454468,318
845.572449,321
845.69043,321
845.808411,305
845.926453,306
846.044373,310
846.162354,327
846.280396,321
846.398315,303
846.516296,307
846.634216,317
846.752197,320
846.870178,309
846.988098,312
847.106079,320
847.22406,307
847.34198,310
847.4599,318
847.577881,321
847.695801,310
847.813782,314
847.931641,314
848.049561,338
848.167603,310
848.285461,323
848.403381,308
848.521362,305
848.639221,326
848.75708,310
848.875,323
848.99292,313
849.110901,316
849.22876,326
849.34668,311
849.464539,312
849.582458,323
849.700317,319
849.818176,318
849.936096,320
850.053955,322
850.171875,320
850.289673,313
850.407593,308
850.525452,311
850.643311,328
850.761169,305
850.878967,309
850.996887,313
851.114746,316
851.232544,306
851.350403,325
851.468262,311
851.58606,324
851.703979,314
851.821777,310
851.939636,311
852.057434,303
852.175232,318
852.293091,307
852.410889,320
852.528687,314
852.646545,300
852.764343,318
852.88208,314
852.999939,316
853.117676,319
853.235535,307
853.353271,313
853.471069,313
853.588928,322
853.706604,327
853.824402,300
853.9422,326
854.059998,313
854.177734,326
854.295532,324
854.413269,315
854.531006,313
854.648804,314
854.766541,311
854.884277,321
855.002014,313
855.119751,309
855.237549,293
855.355225,315
855.473022,318
855.590698,302
855.708435,309
855.826172,317
855.943848,322
856.061646,310
856.179321,317
856.296997,317
856.414795,325
856.53241,310
856.650085,303
856.767822,309
856.885559,323
857.003174,321
857.120911,298
857.238586,316
857.356201,304
857.473938,319
857.591614,317
857.709351,306
857.826965,318
857.944641,308
858.062317,322
858.179993,315
858.297668,308
858.415283,322
858.532959,319
858.650574,313
858.768188,301
858.885803,323
859.003479,314
859.121094,318
859.23877,320
859.356384,311
859.473999,312
859.591675,310
859.709229,323
859.826843,313
859.944458,324
860.062012,320
860.179626,325
860.297302,321
860.414856,318
860.532471,301
860.650024,329
860.767639,313
860.885193,312
861.002808,325
861.120361,312
861.237976,311
861.35553,309
861.473022,304
861.590698,329
861.708191,314
861.825745,311
861.943298,309
862.060852,305
862.178406,318
862.295959,311
862.413513,309
862.531006,329
862.64856,313
862.766113,310
862.883667,320
863.00116,313
863.118713,323
863.236206,320
863.353699,318
863.471252,309
863.588745,310
863.706177,313
863.82373,330
863.941162,322
864.058716,320
864.176208,315
864.29364,323
864.411194,307
864.528687,300
864.646118,322
864.763611,318
864.881042,324
864.998535,307
865.116028,326
865.233459,310
865.350891,303
865.468384,324
865.585754,317
865.703308,318
865.820679,316
865.938171,308
866.055542,314
866.173035,312
866.290466,314
866.407837,311
866.52533,314
866.6427,322
866.760071,304
866.877563,309
866.994934,310
867.112305,306
867.229736,308
867.347107,304
867.464539,301
867.58197,313
867.699341,322
867.81665,325
867.934082,327
868.051453,322
868.168823,326
868.286194,309
868.403564,316
868.520935,319
868.638306,323
868.755676,317
868.872986,310
868.990295,320
869.107727,307
869.225037,316
869.342346,326
869.459717,307
869.577026,294
869.694336,325
869.811707,316
869.929016,321
870.046326,310
870.163635,312
870.280945,300
870.398254,312
870.515564,309
870.632812,316
870.750183,309
870.867432,311
870.984741,316
871.102051,321
871.219299,311
871.336609,316
871.453918,325
871.571106,313
871.688416,311
871.805664,313
871.922852,313
872.040222,319
872.157471,319
872.274719,310
872.391968,309
872.509155,325
872.626465,312
872.743652,320
872.860962,306
872.978149,326
873.095337,319
873.212646,317
873.329834,308
873.44696,307
873.564209,317
873.681396,317
873.798645,314
873.915894,320
874.03302,307
874.150208,318
874.267456,317
874.384583,323
874.501831,315
874.618958,309
874.736145,318
874.853333,330
874.970459,320
875.087646,317
875.204834,321
875.32196,325
875.439148,324
875.556274,310
875.673401,307
875.790527,313
875.907715,313
876.024841,321
876.141968,302
876.259094,320
876.376282,326
876.493347,309
876.610474,319
876.7276,329
876.844727,309
876.961853,306
877.078918,306
877.195984,307
877.313171,309
877.430237,311
877.547302,330
877.664368,312
877.781433,313
877.898499,331
878.015625,307
878.13269,320
878.249695,315
878.366821,310
878.483887,317
878.600952,316
878.717957,325
878.834961,311
878.952087,326
879.069092,324
879.186157,319
879.303162,320
879.420227,302
879.537231,314
879.654236,315
879.77124,314
879.888306,302
880.005249,313
880.122314,300
880.239319,315
880.356323,328
880.473328,317
880.590271,307
880.707275,318
880.824341,318
880.941284,312
881.058228,328
881.175232,312
881.292236,317
881.40918,316
881.526123,309
881.643066,312
881.760071,326
881.877014,315
881.993958,306
882.11084,328
882.227783,305
882.344727,317
882.46167,316
882.578613,315
882.695618,318
882.812439,315
882.929382,318
883.046326,323
883.163208,315
883.280151,300
883.397034,310
883.513916,317
883.630798,306
883.747742,317
883.864563,316
883.981506,311
884.098389,313
884.21521,312
884.332153,303
884.448975,324
884.565796,312
884.682678,321
884.7995,318
884.916443,319
885.033264,324
885.150085,314
885.266968,328
885.383789,320
885.500671,317
885.617493,309
885.734314,311
885.851196,311
885.967896,315
886.084717,313
886.201599,306
886.318359,315
886.435181,296
886.552002,322
886.668762,307
886.785645,314
886.902344,317
887.019165,314
887.135925,320
887.252747,315
887.369446,326
887.486267,333
887.603027,311
887.719788,315
887.836548,311
887.953247,328
888.070068,317
888.186829,308
888.303528,313
888.420288,311
888.536987,322
888.653687,315
888.770447,321
888.887146,327
889.003967,308
889.120667,322
889.237305,322
889.354065,314
889.470703,327
889.587463,314
889.704163,317
889.820862,322
889.937561,305
890.054199,317
890.170837,313
890.287598,327
890.404236,313
890.520874,311
890.637634,312
890.754211,325
890.87085,318
890.987549,329
891.104187,328
891.220886,311
891.337463,321
891.454102,321
891.57074,324
891.687378,316
891.804077,316
891.920654,318
892.037231,324
892.15387,326
892.270447,313
892.387085,322
892.503723,305
892.6203,328
892.736877,310
892.853516,312
892.970032,310
893.08667,319
893.203186,312
893.319763,325
893.43634,317
893.552917,320
893.669556,315
893.786011,327
893.902588,319
894.019165,311
894.135681,306
894.252197,322
894.368835,314
894.485291,322
894.601868,319
894.718384,330
894.8349,315
894.951355,318
895.067932,323
895.184448,320
895.300964,325
895.417419,330
895.533936,318
895.650452,319
895.766907,314
895.883423,316
895.999878,302
896.116333,314
896.232849,309
896.349304,314
896.465759,304
896.582214,317
896.698669,319
896.815125,325
896.931641,316
897.048035,330
897.164551,316
897.280884,325
897.397339,319
897.513794,313
897.630249,326
897.746582,314
897.863098,324
897.979431,319
898.095886,317
898.212341,307
898.328674,319
898.445129,328
898.561462,304
898.677795,317
898.794312,327
898.910645,318
899.026978,331
899.143433,335
899.259766,316
899.37616,319
899.492493,323
899.608765,317
899.725159,334
899.841553,317
899.957947,306
900.07428,317
900.190552,315
900.306946,311
900.423157,308
900.53949,322
900.655884,317
900.772156,316
900.888489,317
901.004822,317
901.121033,316
901.237366,325
901.353699,320
901.46991,324
901.586304,310
901.702515,326
901.818787,308
901.93512,321
902.051331,319
902.167603,308
902.283875,318
902.400085,322
902.516418,315
902.632629,332
902.74884,311
902.865112,317
902.981384,320
903.097595,309
903.213867,315
903.330017,314
903.446289,317
903.5625,319
903.67865,328
903.794922,312
903.911072,310
904.027344,313
904.143494,318
904.259705,324
904.375916,307
904.492065,310
904.608215,321
904.724426,327
904.840576,322
904.956726,309
905.072876,315
905.189087,304
905.305176,324
905.421387,311
905.537537,320
905.653687,315
905.769775,309
905.885925,313
906.002014,318
906.118164,320
906.234314,318
906.350403,327
906.466492,311
906.582642,324
906.69873,320
906.814758,324
906.930908,323
907.046936,328
907.163086,317
907.279175,332
907.395264,311
907.511353,313
907.62738,318
907.743408,318
907.859497,314
907.975525,318
908.091553,312
908.207703,315
908.32373,320
908.439758,326
908.555786,314
908.671814,324
908.787842,298
908.90387,329
909.019775,310
909.135864,329
909.251892,314
909.367859,321
909.483826,312
909.599854,311
909.715881,331
909.831848,311
909.947815,315
910.063782,324
910.179749,310
910.295776,328
910.411743,324
910.527649,320
910.643616,314
910.759583,318
910.875488,310
910.991455,324
911.107361,323
911.223267,321
911.339294,309
911.4552,317
911.571106,308
911.687073,317
911.802979,318
911.918823,324
912.034729,317
912.150635,321
912.266602,310
912.382446,305
912.498352,313
912.614197,312
912.730103,319
912.846008,308
792.44574,308
792.56488,339
792.68396,382
792.80304,368
792.92218,322
793.041199,297
793.160339,314
793.279419,332
793.398499,323
793.517578,314
793.636658,330
793.755737,334
793.874817,337
793.993896,363
794.112976,323
794.232056,315
794.351074,315
794.470215,316
794.589233,315
794.708313,324
794.827393,319
794.946411,335
795.065552,330
795.18457,335
795.303589,320
795.422668,324
795.541687,314
795.660767,336
795.779846,321
795.898865,326
796.017883,325
796.136963,325
796.255981,321
796.375061,321
796.49408,306
796.613037,332
796.732117,326
796.851135,328
796.970154,321
797.089233,332
797.208191,318
797.327271,338
797.446228,327
797.565186,329
797.684265,308
797.803223,315
797.922241,319
798.04126,330
798.160278,326
798.279297,324
798.398315,308
798.517273,338
798.636292,319
798.75531,322
798.874268,319
798.993286,341
799.112244,305
799.231323,324
799.350281,321
799.469238,310
799.588257,323
799.707153,324
799.826111,313
799.945129,319
800.064087,320
800.183044,325
800.302063,321
800.421021,325
800.539978,324
800.658936,314
800.777893,326
800.896912,330
801.015747,322
801.134705,330
801.253723,322
801.37262,324
801.491638,332
801.610535,320
801.729492,327
801.84845,330
801.967407,337
802.086243,320
802.205261,326
802.324158,323
802.443115,324
802.562073,332
802.680969,311
802.799927,317
802.918762,316
803.037659,337
803.156677,320
803.275574,321
803.39447,322
803.513428,314
803.632263,320
803.751221,326
803.870117,323
803.989014,319
804.107971,322
804.226746,311
804.345642,306
804.4646,330
804.583496,329
804.702393,312
804.821228,320
804.940125,326
805.059021,318
805.177917,318
805.296814,318
805.415649,337
805.534546,316
805.653442,324
805.772278,311
805.891113,319
806.01001,322
806.128906,330
806.247742,321
806.366577,330
806.485413,316
806.604309,313
806.723145,303
806.84198,318
806.960876,316
807.079712,308
807.198486,332
807.317383,322
807.436218,328
807.554993,327
807.673889,329
807.792725,326
807.91156,341
808.030396,317
808.14917,324
808.268005,320
808.386841,328
808.505676,318
808.624451,314
808.743286,325
808.862122,314
808.980896,316
809.099731,315
809.218506,316
809.337341,327
809.456116,336
809.57489,315
809.693726,317
809.8125,322
809.931274,313
810.050049,326
810.168884,317
810.287659,314
810.406372,314
810.525269,333
810.643982,330
810.762756,314
810.881531,321
811.000305,320
811.11908,329
811.237854,326
811.356567,328
811.475403,320
811.594116,316
811.71283,312
811.831604,328
811.950378,308
812.069153,315
812.187927,310
812.30658,326
812.425415,316
812.544128,315
812.662781,313
812.781616,326
812.900269,328
813.019043,315
813.137756,317
813.256531,321
813.375244,306
813.493896,346
813.612671,305
813.731384,313
813.850037,320
813.96875,323
814.087524,314
814.206238,307
814.324951,313
814.443604,305
814.562256,315
814.68103,322
814.799683,301
814.918335,323
815.037109,319
815.155762,334
815.274475,318
815.393188,320
815.511841,325
815.630554,336
815.749146,318
815.867859,320
815.986572,322
816.105164,308
816.223877,338
816.342529,329
816.461182,324
816.579895,328
816.698486,319
816.817139,334
816.935791,323
817.054504,312
817.173096,319
817.291748,316
817.4104,309
817.529053,323
817.647644,313
817.766235,314
817.884949,320
818.00354,324
818.122192,316
818.240845,300
818.359436,327
818.478088,320
818.59668,314
818.715271,322
818.833923,316
818.952515,322
819.071106,305
819.189758,319
819.30835,316
819.426941,332
819.545532,318
819.664124,311
819.782715,320
819.901306,331
820.019897,326
820.138489,329
820.25708,326
820.375671,321
820.494202,309
820.612732,327
820.731384,324
820.849915,314
820.968506,309
821.087097,329
821.205627,313
821.324158,329
821.442749,317
821.561279,325
821.679871,312
821.798401,327
821.916931,315
822.035461,311
822.154053,312
822.272583,312
822.391174,307
822.509583,308
822.628174,309
822.746704,320
822.865234,318
822.983765,319
823.102295,306
823.220825,313
823.339294,318
823.457825,309
823.576355,324
823.694824,319
823.813354,322
823.931885,332
824.050354,320
824.168884,314
824.287354,323
824.405823,333
824.524353,311
824.642822,313
824.761353,313
824.879822,314
824.998291,309
825.116699,315
825.235291,319
825.353699,327
825.472168,316
825.590637,308
825.709106,326
825.827576,314
825.946045,310
826.064453,325
826.182983,323
826.301392,322
826.4198,318
826.53833,317
826.656738,321
826.775208,314
826.893677,328
827.012024,334
827.130493,308
827.248962,313
827.36731,307
827.485779,312
827.604248,298
827.722595,318
827.841064,321
827.959412,310
828.077942,319
828.196289,320
828.314636,316
828.433105,324
828.551514,314
828.669861,311
828.78833,316
828.906677,309
829.025085,324
829.143433,304
829.261841,317
829.38031,308
829.498657,322
829.617004,303
829.735413,304
829.85376,321
829.972107,319
830.090515,317
830.208862,314
830.327209,316
830.445557,322
830.563904,320
830.682312,319
830.800659,326
830.919006,317
831.037354,321
831.155701,315
831.274048,317
831.392395,315
831.51062,303
831.629028,310
831.747314,329
831.865662,315
831.984009,322
832.102356,303
832.220642,324
832.338928,310
832.457275,310
832.575623,321
832.693909,308
832.812134,314
832.930481,311
833.048828,318
833.167114,320
833.2854,318
833.403687,304
833.521973,319
833.640259,318
833.758545,312
833.876831,314
833.995056,313
834.113281,319
834.231628,316
834.349915,327
834.468201,310
834.586426,325
834.704651,309
834.822998,314
834.941162,322
835.059448,322
835.177673,307
835.295959,318
835.414246,305
835.53241,315
835.650635,308
835.768921,328
835.887146,319
836.005371,310
836.123596,318
836.241821,328
836.360046,325
836.478271,314
836.596497,324
836.714722,312
836.832886,303
836.95105,315
837.069336,317
837.1875,320
837.305725,322
837.423889,310
837.542053,307
837.660339,309
837.778503,320
837.896667,328
838.014832,309
838.132996,315
838.25116,306
838.369385,324
838.487488,311
838.605713,326
838.723877,324
838.84198,313
838.960205,314
839.078308,303
839.196472,327
839.314636,310
839.4328,316
839.550964,319
839.669067,306
839.787231,308
839.905396,327
840.023499,317
840.141602,322
840.259766,312
840.377869,318
840.495972,319
840.614136,311
840.732239,314
840.850342,314
840.968445,313
841.086548,320
841.204651,322
841.322754,321
841.440918,317
841.55896,308
841.677002,320
841.795166,309
841.913208,323
842.031311,306
842.149353,313
842.267456,314
842.385498,310
842.503601,328
842.621643,304
842.739746,322
842.857788,320
842.97583,312
843.093933,325
843.211975,307
843.330017,305
843.44812,328
843.566101,317
843.684204,301
843.802246,323
843.920227,307
844.038269,319
844.156311,313
844.274292,313
844.392395,314
844.510376,326
844.628357,319
844.74646,314
844.864441,316
844.982422,325
845.100403,314
845.218384,325
845.336426,307
845.454468,320
845.572449,320
845.69043,318
845.808411,316
845.926453,319
846.044373,313
846.162354,320
846.280396,312
846.398315,314
846.516296,308
846.634216,328
846.752197,325
846.870178,309
846.988098,315
847.106079,310
847.22406,322
847.34198,326
847.4599,329
847.577881,323
847.695801,309
847.813782,317
847.931641,327
848.049561,317
848.167603,313
848.285461,315
848.403381,314
848.521362,320
848.639221,318
848.75708,319
848.875,313
848.99292,324
849.110901,306
849.22876,310
849.34668,318
849.464539,314
849.582458,319
849.700317,318
849.818176,320
849.936096,307
850.053955,314
850.171875,316
850.289673,323
850.407593,318
850.525452,311
850.643311,315
850.761169,300
850.878967,330
850.996887,317
851.114746,316
851.232544,310
851.350403,331
851.468262,304
851.58606,313
851.703979,310
851.821777,314
851.939636,332
852.057434,311
852.175232,316
852.293091,327
852.410889,315
852.528687,323
852.646545,320
852.764343,328
852.88208,311
852.999939,310
853.117676,304
853.235535,324
853.353271,313
853.471069,323
853.588928,306
853.706604,334
853.824402,306
853.9422,320
854.059998,312
854.177734,317
854.295532,311
854.413269,307
854.531006,332
854.648804,319
854.766541,316
854.884277,302
855.002014,324
855.119751,325
855.237549,310
855.355225,320
855.473022,312
855.590698,316
855.708435,315
855.826172,320
855.943848,311
856.061646,322
856.179321,312
856.296997,310
856.414795,324
856.53241,318
856.650085,316
856.767822,316
856.885559,321
857.003174,321
857.120911,309
857.238586,310
857.356201,319
857.473938,315
857.591614,322
857.709351,325
857.826965,334
857.944641,312
858.062317,316
858.179993,316
858.297668,313
858.415283,315
858.532959,312
858.650574,320
858.768188,315
858.885803,301
859.003479,320
859.121094,321
859.23877,300
859.356384,320
859.473999,316
859.591675,323
859.709229,301
859.826843,309
859.944458,308
860.062012,304
860.179626,321
860.297302,320
860.414856,319
860.532471,317
860.650024,327
860.767639,322
860.885193,324
861.002808,317
861.120361,311
861.237976,309
861.35553,324
861.473022,312
861.590698,320
861.708191,327
861.825745,308
861.943298,321
862.060852,310
862.178406,314
862.295959,319
862.413513,310
862.531006,317
862.64856,312
862.766113,322
862.883667,317
863.00116,324
863.118713,311
863.236206,311
863.353699,316
863.471252,312
863.588745,318
863.706177,329
863.82373,310
863.941162,321
864.058716,302
864.176208,310
864.29364,323
864.411194,330
864.528687,318
864.646118,318
864.763611,312
864.881042,322
864.998535,332
865.116028,309
865.233459,324
865.350891,311
865.468384,315
865.585754,317
865.703308,320
865.820679,307
865.938171,320
866.055542,321
866.173035,317
866.290466,321
866.407837,308
866.52533,306
866.6427,317
866.760071,306
866.877563,322
866.994934,321
867.112305,311
867.229736,301
867.347107,307
867.464539,308
867.58197,304
867.699341,321
867.81665,321
867.934082,312
868.051453,317
868.168823,326
868.286194,322
868.403564,314
868.520935,311
868.638306,308
868.755676,312
868.872986,324
868.990295,319
869.107727,322
869.225037,303
869.342346,303
869.459717,318
869.577026,318
869.694336,316
869.811707,319
869.929016,320
870.046326,328
870.163635,320
870.280945,329
870.398254,318
870.515564,324
870.632812,315
870.750183,310
870.867432,330
870.984741,310
871.102051,327
871.219299,316
871.336609,322
871.453918,317
871.571106,330
871.688416,320
871.805664,326
871.922852,310
872.040222,322
872.157471,306
872.274719,323
872.391968,319
872.509155,322
872.626465,314
872.743652,316
872.860962,322
872.978149,318
873.095337,318
873.212646,315
873.329834,317
873.44696,317
873.564209,310
873.681396,331
873.798645,321
873.915894,307
874.03302,313
874.150208,310
874.267456,316
874.384583,324
874.501831,315
874.618958,320
874.736145,311
874.853333,329
874.970459,310
875.087646,308
875.204834,318
875.32196,319
875.439148,313
875.556274,328
875.673401,320
875.790527,313
875.907715,324
876.024841,314
876.141968,303
876.259094,317
876.376282,323
876.493347,324
876.610474,312
876.7276,323
876.844727,302
876.961853,315
877.078918,305
877.195984,317
877.313171,316
877.430237,317
877.547302,323
877.664368,324
877.781433,320
877.898499,311
878.015625,322
878.13269,319
878.249695,323
878.366821,318
878.483887,324
878.600952,309
878.717957,319
878.834961,320
878.952087,321
879.069092,323
879.186157,312
879.303162,329
879.420227,318
879.537231,318
879.654236,316
879.77124,318
879.888306,311
880.005249,332
880.122314,315
880.239319,322
880.356323,305
880.473328,316
880.590271,311
880.707275,319
880.824341,330
880.941284,302
881.058228,319
881.175232,325
881.292236,313
881.40918,321
881.526123,318
881.643066,320
881.760071,319
881.877014,320
881.993958,317
882.11084,319
882.227783,311
882.344727,317
882.46167,313
882.578613,327
882.695618,319
882.812439,336
882.929382,308
883.046326,311
883.163208,324
883.280151,314
883.397034,315
883.513916,329
883.630798,325
883.747742,333
883.864563,310
883.981506,317
884.098389,316
884.21521,320
884.332153,318
884.448975,318
884.565796,312
884.682678,318
884.7995,312
884.916443,316
885.033264,313
885.150085,327
885.266968,325
885.383789,320
885.500671,320
885.617493,316
885.734314,318
885.851196,316
885.967896,320
886.084717,313
886.201599,312
886.318359,315
886.435181,318
886.552002,322
886.668762,325
886.785645,312
886.902344,314
887.019165,317
887.135925,311
887.252747,302
887.369446,318
887.486267,324
887.603027,310
887.719788,311
887.836548,313
887.953247,308
888.070068,310
888.186829,321
888.303528,302
888.420288,320
888.536987,322
888.653687,323
888.770447,315
888.887146,318
889.003967,316
889.120667,320
889.237305,325
889.354065,319
889.470703,315
889.587463,314
889.704163,326
889.820862,322
889.937561,321
890.054199,332
890.170837,322
890.287598,312
890.404236,302
890.520874,324
890.637634,316
890.754211,313
890.87085,303
890.987549,327
891.104187,304
891.220886,323
891.337463,323
891.454102,310
891.57074,316
891.687378,307
891.804077,328
891.920654,323
892.037231,322
892.15387,328
892.270447,303
892.387085,327
892.503723,306
892.6203,323
892.736877,314
892.853516,312
892.970032,325
893.08667,336
893.203186,310
893.319763,308
893.43634,323
893.552917,334
893.669556,312
893.786011,330
893.902588,305
894.019165,320
894.135681,315
894.252197,346
894.368835,318
894.485291,303
894.601868,316
894.718384,320
894.8349,317
894.951355,318
895.067932,312
895.184448,319
895.300964,320
895.417419,331
895.533936,319
895.650452,315
895.766907,307
895.883423,317
895.999878,314
896.116333,305
896.232849,327
896.349304,315
896.465759,313
896.582214,329
896.698669,314
896.815125,319
896.931641,311
897.048035,322
897.164551,318
897.280884,309
897.397339,313
897.513794,321
897.630249,302
897.746582,320
897.863098,309
897.979431,317
898.095886,313
898.212341,321
898.328674,323
898.445129,324
898.561462,314
898.677795,320
898.794312,315
898.910645,313
899.026978,302
899.143433,331
899.259766,310
899.37616,308
899.492493,306
899.608765,331
899.725159,305
899.841553,315
899.957947,331
900.07428,313
900.190552,312
900.306946,324
900.423157,316
900.53949,322
900.655884,323
900.772156,321
900.888489,313
901.004822,314
901.121033,328
901.237366,318
901.353699,308
901.46991,315
901.586304,310
901.702515,305
901.818787,324
901.93512,310
902.051331,313
902.167603,311
902.283875,328
902.400085,318
902.516418,317
902.632629,323
902.74884,319
902.865112,319
902.981384,313
903.097595,320
903.213867,304
903.330017,322
903.446289,308
903.5625,322
903.67865,316
903.794922,317
903.911072,326
904.027344,318
904.143494,321
904.259705,321
904.375916,323
904.492065,305
904.608215,320
904.724426,317
904.840576,306
904.956726,316
905.072876,303
905.189087,330
905.305176,317
905.421387,307
905.537537,307
905.653687,311
905.769775,324
905.885925,317
906.002014,311
906.118164,309
906.234314,324
906.350403,317
906.466492,319
906.582642,326
906.69873,318
906.814758,316
906.930908,315
907.046936,326
907.163086,321
907.279175,319
907.395264,316
907.511353,303
907.62738,314
907.743408,320
907.859497,303
907.975525,314
908.091553,309
908.207703,316
908.32373,313
908.439758,312
908.555786,321
908.671814,330
908.787842,316
908.90387,318
909.019775,306
909.135864,315
909.251892,321
909.367859,320
909.483826,327
909.599854,324
909.715881,313
909.831848,328
909.947815,306
910.063782,317
910.179749,323
910.295776,311
910.411743,336
910.527649,317
910.643616,313
910.759583,322
910.875488,306
910.991455,315
911.107361,310
911.223267,306
911.339294,314
911.4552,307
911.571106,311
911.687073,317
911.802979,318
911.918823,332
912.034729,309
912.150635,329
912.266602,308
912.382446,308
912.498352,322
912.614197,323
912.730103,312
912.846008,309
792.44574,309
792.56488,348
792.68396,382
792.80304,365
792.92218,319
793.041199,312
793.160339,314
793.279419,330
793.398499,315
793.517578,308
793.636658,312
793.755737,325
793.874817,343
793.993896,350
794.112976,327
794.232056,324
794.351074,314
794.470215,325
794.589233,321
794.708313,317
794.827393,315
794.946411,330
795.065552,335
795.18457,340
795.303589,328
795.422668,319
795.541687,330
795.660767,315
795.779846,314
795.898865,313
796.017883,323
796.136963,338
796.255981,316
796.375061,330
796.49408,324
796.613037,322
796.732117,316
796.851135,319
796.970154,321
797.089233,315
797.208191,324
797.327271,325
797.446228,317
797.565186,332
797.684265,325
797.803223,323
797.922241,332
798.04126,324
798.160278,328
798.279297,318
798.398315,315
798.517273,328
798.636292,313
798.75531,335
798.874268,326
798.993286,312
799.112244,328
799.231323,320
799.350281,335
799.469238,335
799.588257,318
799.707153,341
799.826111,321
799.945129,313
800.064087,326
800.183044,319
800.302063,315
800.421021,313
800.539978,321
800.658936,322
800.777893,320
800.896912,318
801.015747,331
801.134705,317
801.253723,328
801.37262,321
801.491638,323
801.610535,319
801.729492,323
801.84845,320
801.967407,335
802.086243,325
802.205261,313
802.324158,324
802.443115,320
802.562073,311
802.680969,322
802.799927,315
802.918762,321
803.037659,310
803.156677,332
803.275574,331
803.39447,312
803.513428,316
803.632263,318
803.751221,327
803.870117,321
803.989014,320
804.107971,315
804.226746,321
804.345642,324
804.4646,323
804.583496,319
804.702393,316
804.821228,308
804.940125,310
805.059021,322
805.177917,332
805.296814,333
805.415649,313
805.534546,330
805.653442,318
805.772278,324
805.891113,308
806.01001,315
806.128906,315
806.247742,329
806.366577,305
806.485413,313
806.604309,317
806.723145,331
806.84198,323
806.960876,321
807.079712,320
807.198486,315
807.317383,310
807.436218,321
807.554993,331
807.673889,317
807.792725,319
807.91156,322
808.030396,320
808.14917,320
808.268005,336
808.386841,327
808.505676,324
808.624451,322
808.743286,315
808.862122,309
808.980896,324
809.099731,326
809.218506,324
809.337341,324
809.456116,324
809.57489,313
809.693726,333
809.8125,311
809.931274,319
810.050049,311
810.168884,331
810.287659,315
810.406372,322
810.525269,320
810.643982,310
810.762756,316
810.881531,331
811.000305,315
811.11908,329
811.237854,316
811.356567,323
811.475403,318
811.594116,339
811.71283,304
811.831604,322
811.950378,324
812.069153,325
812.187927,308
812.30658,333
812.425415,332
812.544128,330
812.662781,313
812.781616,309
812.900269,304
813.019043,332
813.137756,311
813.256531,327
813.375244,316
813.493896,311
813.612671,318
813.731384,328
813.850037,323
813.96875,315
814.087524,325
814.206238,322
814.324951,315
814.443604,314
814.562256,305
814.68103,310
814.799683,332
814.918335,308
815.037109,333
815.155762,323
815.274475,321
815.393188,302
815.511841,332
815.630554,309
815.749146,325
815.867859,320
815.986572,309
816.105164,320
816.223877,312
816.342529,326
816.461182,325
816.579895,329
816.698486,323
816.817139,324
816.935791,324
817.054504,327
817.173096,306
817.291748,320
817.4104,330
817.529053,317
817.647644,319
817.766235,307
817.884949,318
818.00354,334
818.122192,324
818.240845,319
818.359436,319
818.478088,321
818.59668,324
818.715271,325
818.833923,313
818.952515,332
819.071106,322
819.189758,314
819.30835,327
819.426941,332
819.545532,314
819.664124,323
819.782715,307
819.901306,323
820.019897,320
820.138489,308
820.25708,312
820.375671,319
820.494202,303
820.612732,315
820.731384,315
820.849915,319
820.968506,306
821.087097,313
821.205627,312
821.324158,318
821.442749,326
821.561279,325
821.679871,312
821.798401,323
821.916931,327
822.035461,318
822.154053,309
822.272583,326
822.391174,310
822.509583,316
822.628174,309
822.746704,310
822.865234,318
822.983765,304
823.102295,307
823.220825,320
823.339294,311
823.457825,320
823.576355,301
823.694824,309
823.813354,312
823.931885,328
824.050354,309
824.168884,315
824.287354,319
824.405823,323
824.524353,322
824.642822,315
824.761353,311
824.879822,322
824.998291,322
825.116699,324
825.235291,313
825.353699,316
825.472168,319
825.590637,322
825.709106,314
825.827576,322
825.946045,314
826.064453,309
826.182983,314
826.301392,311
826.4198,316
826.53833,318
826.656738,321
826.775208,308
826.893677,323
827.012024,316
827.130493,306
827.248962,308
827.36731,307
827.485779,319
827.604248,322
827.722595,320
827.841064,315
827.959412,338
828.077942,319
828.196289,327
828.314636,301
828.433105,322
828.551514,308
828.669861,321
828.78833,320
828.906677,330
829.025085,313
829.143433,312
829.261841,329
829.38031,307
829.498657,311
829.617004,316
829.735413,313
829.85376,315
829.972107,322
830.090515,325
830.208862,315
830.327209,333
830.445557,323
830.563904,311
830.682312,315
830.800659,314
830.919006,318
831.037354,315
831.155701,319
831.274048,313
831.392395,308
831.51062,315
831.629028,313
831.747314,312
831.865662,320
831.984009,324
832.102356,318
832.220642,318
832.338928,322
832.457275,328
832.575623,322
832.693909,315
832.812134,323
832.930481,306
833.048828,317
833.167114,321
833.2854,318
833.403687,321
833.521973,326
833.640259,320
833.758545,315
833.876831,310
833.995056,305
834.113281,313
834.231628,321
834.349915,322
834.468201,317
834.586426,311
834.704651,316
834.822998,304
834.941162,325
835.059448,309
835.177673,317
835.295959,326
835.414246,299
835.53241,319
835.650635,329
835.768921,312
835.887146,317
836.005371,312
836.123596,304
836.241821,315
836.360046,318
836.478271,321
836.596497,308
836.714722,318
836.832886,315
836.95105,318
837.069336,328
837.1875,317
837.305725,320
837.423889,321
837.542053,320
837.660339,300
837.778503,310
837.896667,306
838.014832,311
838.132996,327
838.25116,318
838.369385,316
838.487488,314
838.605713,303
838.723877,315
838.84198,309
838.960205,310
839.078308,316
839.196472,302
839.314636,309
839.4328,303
839.550964,306
839.669067,319
839.787231,311
839.905396,314
840.023499,313
840.141602,313
840.259766,319
840.377869,310
840.495972,312
840.614136,311
840.732239,313
840.850342,319
840.968445,311
841.086548,324
841.204651,328
841.322754,314
841.440918,325
841.55896,314
841.677002,324
841.795166,306
841.913208,309
842.031311,326
842.149353,306
842.267456,297
842.385498,318
842.503601,301
842.621643,314
842.739746,303
842.857788,308
842.97583,319
843.093933,324
843.211975,313
843.330017,317
843.44812,316
843.566101,313
843.684204,322
843.802246,323
843.920227,308
844.038269,308
844.156311,313
844.274292,309
844.392395,316
844.510376,312
844.628357,313
844.74646,303
844.864441,313
844.982422,314
845.100403,305
845.218384,329
845.336426,312
845.454468,311
845.572449,328
845.69043,307
845.808411,319
845.926453,314
846.044373,319
846.162354,312
846.280396,312
846.398315,320
846.516296,310
846.634216,309
846.752197,302
846.870178,317
846.988098,314
847.106079,327
847.22406,312
847.34198,321
847.4599,301
847.577881,317
847.695801,318
847.813782,310
847.931641,323
848.049561,307
848.167603,318
848.285461,320
848.403381,307
848.521362,321
848.639221,313
848.75708,317
848.875,314
848.99292,315
849.110901,318
849.22876,320
849.34668,318
849.464539,326
849.582458,324
849.700317,316
849.818176,314
849.936096,322
850.053955,327
850.171875,324
850.289673,304
850.407593,316
850.525452,326
850.643311,328
850.761169,306
850.878967,310
850.996887,322
851.114746,316
851.232544,307
851.350403,312
851.468262,324
851.58606,313
851.703979,325
851.821777,331
851.939636,314
852.057434,307
852.175232,305
852.293091,320
852.410889,318
852.528687,327
852.646545,315
852.764343,313
852.88208,311
852.999939,311
853.117676,321
853.235535,313
853.353271,325
853.471069,319
853.588928,324
853.706604,309
853.824402,313
853.9422,308
854.059998,320
854.177734,301
854.295532,307
854.413269,323
854.531006,315
854.648804,321
854.766541,305
854.884277,308
855.002014,312
855.119751,329
855.237549,310
855.355225,305
855.473022,325
855.590698,323
855.708435,307
855.826172,321
855.943848,317
856.061646,327
856.179321,306
856.296997,324
856.414795,313
856.53241,316
856.650085,308
856.767822,312
856.885559,315
857.003174,316
857.120911,311
857.238586,323
857.356201,323
857.473938,313
857.591614,319
857.709351,308
857.826965,318
857.944641,324
858.062317,288
858.179993,315
858.297668,328
858.415283,313
858.532959,300
858.650574,329
858.768188,324
858.885803,318
859.003479,302
859.121094,308
859.23877,302
859.356384,320
859.473999,313
859.591675,323
859.709229,301
859.826843,304
859.944458,328
860.062012,323
860.179626,324
860.297302,322
860.414856,306
860.532471,329
860.650024,318
860.767639,306
860.885193,324
861.002808,301
861.120361,310
861.237976,309
861.35553,317
861.473022,315
861.590698,313
861.708191,325
861.825745,315
861.943298,333
862.060852,309
862.178406,322
862.295959,317
862.413513,313
862.531006,309
862.64856,319
862.766113,315
862.883667,311
863.00116,322
863.118713,306
863.236206,308
863.353699,326
863.471252,310
863.588745,328
863.706177,307
863.82373,319
863.941162,309
864.058716,321
864.176208,318
864.29364,308
864.411194,301
864.528687,321
864.646118,327
864.763611,329
864.881042,325
864.998535,303
865.116028,316
865.233459,310
865.350891,308
865.468384,315
865.585754,320
865.703308,321
865.820679,305
865.938171,312
866.055542,317
866.173035,327
866.290466,315
866.407837,315
866.52533,314
866.6427,317
866.760071,331
866.877563,320
866.994934,324
867.112305,322
867.229736,309
867.347107,303
867.464539,324
867.58197,319
867.699341,323
867.81665,309
867.934082,305
868.051453,320
868.168823,301
868.286194,315
868.403564,318
868.520935,315
868.638306,310
868.755676,334
868.872986,315
868.990295,312
869.107727,312
869.225037,315
869.342346,319
869.459717,301
869.577026,317
869.694336,325
869.811707,312
869.929016,334
870.046326,306
870.163635,308
870.280945,319
870.398254,314
870.515564,316
870.632812,322
870.750183,310
870.867432,322
870.984741,313
871.102051,305
871.219299,318
871.336609,326
871.453918,326
871.571106,310
871.688416,318
871.805664,314
871.922852,321
872.040222,313
872.157471,316
872.274719,333
872.391968,303
872.509155,313
872.626465,314
872.743652,318
872.860962,312
872.978149,316
873.095337,318
873.212646,317
873.329834,323
873.44696,325
873.564209,325
873.681396,314
873.798645,327
873.915894,316
874.03302,318
874.150208,316
874.267456,311
874.384583,309
874.501831,313
874.618958,321
874.736145,329
874.853333,310
874.970459,308
875.087646,312
875.204834,323
875.32196,326
875.439148,325
875.556274,325
875.673401,317
875.790527,329
875.907715,313
876.024841,318
876.141968,328
876.259094,320
876.376282,313
876.493347,311
876.610474,313
876.7276,319
876.844727,314
876.961853,321
877.078918,318
877.195984,318
877.313171,318
877.430237,308
877.547302,323
877.664368,321
877.781433,304
877.898499,312
878.015625,317
878.13269,315
878.249695,318
878.366821,310
878.483887,311
878.600952,304
878.717957,316
878.834961,311
878.952087,309
879.069092,324
879.186157,322
879.303162,321
879.420227,321
879.537231,327
879.654236,317
879.77124,321
879.888306,312
880.005249,314
880.122314,320
880.239319,326
880.356323,309
880.473328,318
880.590271,315
880.707275,321
880.824341,317
880.941284,310
881.058228,315
881.175232,335
881.292236,316
881.40918,315
881.526123,315
881.643066,320
881.760071,318
881.877014,317
881.993958,316
882.11084,317
882.227783,312
882.344727,322
882.46167,306
882.578613,326
882.695618,312
882.812439,310
882.929382,321
883.046326,311
883.163208,323
883.280151,322
883.397034,316
883.513916,321
883.630798,308
883.747742,324
883.864563,305
883.981506,333
884.098389,335
884.21521,315
884.332153,320
884.448975,319
884.565796,321
884.682678,324
884.7995,310
884.916443,322
885.033264,311
885.150085,325
885.266968,309
885.383789,311
885.500671,321
885.617493,309
885.734314,307
885.851196,331
885.967896,320
886.084717,320
886.201599,317
886.318359,312
886.435181,310
886.552002,312
886.668762,306
886.785645,307
886.902344,314
887.019165,320
887.135925,316
887.252747,316
887.369446,308
887.486267,330
887.603027,322
887.719788,311
887.836548,312
887.953247,314
888.070068,319
888.186829,298
888.303528,305
888.420288,329
888.536987,315
888.653687,312
888.770447,322
888.887146,312
889.003967,317
889.120667,327
889.237305,318
889.354065,309
889.470703,321
889.587463,311
889.704163,315
889.820862,321
889.937561,317
890.054199,313
890.170837,305
890.287598,312
890.404236,325
890.520874,314
890.637634,308
890.754211,316
890.87085,301
890.987549,323
891.104187,311
891.220886,309
891.337463,313
891.454102,324
891.57074,306
891.687378,313
891.804077,308
891.920654,321
892.037231,313
892.15387,316
892.270447,313
892.387085,312
892.503723,308
892.6203,318
892.736877,327
892.853516,311
892.970032,299
893.08667,314
893.203186,314
893.319763,339
893.43634,316
893.552917,309
893.669556,317
893.786011,328
893.902588,310
894.019165,317
894.135681,321
894.252197,319
894.368835,307
894.485291,324
894.601868,308
894.718384,313
894.8349,318
894.951355,315
895.067932,318
895.184448,312
895.300964,313
895.417419,330
895.533936,317
895.650452,322
895.766907,314
895.883423,318
895.999878,321
896.116333,312
896.232849,308
896.349304,327
896.465759,302
896.582214,321
896.698669,319
896.815125,321
896.931641,321
897.048035,326
897.164551,331
897.280884,315
897.397339,329
897.513794,325
897.630249,312
897.746582,325
897.863098,318
897.979431,322
898.095886,314
898.212341,310
898.328674,316
898.445129,311
898.561462,313
898.677795,303
898.794312,319
898.910645,313
899.026978,313
899.143433,317
899.259766,309
899.37616,307
899.492493,318
899.608765,313
899.725159,312
899.841553,322
899.957947,306
900.07428,317
900.190552,310
900.306946,316
900.423157,299
900.53949,301
900.655884,317
900.772156,308
900.888489,326
901.004822,308
901.121033,325
901.237366,326
901.353699,310
901.46991,317
901.586304,306
901.702515,312
901.818787,318
901.93512,307
902.051331,314
902.167603,315
902.283875,308
902.400085,323
902.516418,316
902.632629,321
902.74884,318
902.865112,304
902.981384,317
903.097595,328
903.213867,323
903.330017,317
903.446289,303
903.5625,330
903.67865,308
903.794922,313
903.911072,320
904.027344,312
904.143494,310
904.259705,329
904.375916,312
904.492065,310
904.608215,314
904.724426,313
904.840576,320
904.956726,323
905.072876,315
905.189087,326
905.305176,308
905.421387,321
905.537537,320
905.653687,303
905.769775,305
905.885925,318
906.002014,323
906.118164,321
906.234314,317
906.350403,325
906.466492,317
906.582642,325
906.69873,311
906.814758,306
906.930908,315
907.046936,315
907.163086,317
907.279175,318
907.395264,315
907.511353,305
907.62738,319
907.743408,310
907.859497,314
907.975525,311
908.091553,318
908.207703,304
908.32373,307
908.439758,311
908.555786,310
908.671814,328
908.787842,313
908.90387,318
909.019775,317
909.135864,331
909.251892,315
909.367859,316
909.483826,315
909.599854,319
909.715881,306
909.831848,318
909.947815,307
910.063782,320
910.179749,321
910.295776,315
910.411743,300
910.527649,311
910.643616,329
910.759583,327
910.875488,308
910.991455,323
911.107361,318
911.223267,324
911.339294,310
911.4552,302
911.571106,310
911.687073,322
911.802979,319
911.918823,323
912.034729,323
912.150635,307
912.266602,320
912.382446,323
912.498352,314
912.614197,326
912.730103,323
912.846008,309
