792.44574,314
792.56488,342
792.68396,387
792.80304,379
792.92218,342
793.041199,315
793.160339,323
793.279419,337
793.398499,340
793.517578,318
793.636658,320
793.755737,336
793.874817,351
793.993896,346
794.112976,341
794.232056,333
794.351074,317
794.470215,329
794.589233,325
794.708313,326
794.827393,332
794.946411,322
795.065552,335
795.18457,331
795.303589,330
795.422668,324
795.541687,316
795.660767,338
795.779846,333
795.898865,333
796.017883,330
796.136963,329
796.255981,323
796.375061,319
796.49408,328
796.613037,329
796.732117,335
796.851135,315
796.970154,335
797.089233,320
797.208191,320
797.327271,335
797.446228,330
797.565186,334
797.684265,318
797.803223,328
797.922241,336
798.04126,319
798.160278,327
798.279297,317
798.398315,328
798.517273,330
798.636292,313
798.75531,334
798.874268,324
798.993286,335
799.112244,327
799.231323,329
799.350281,318
799.469238,325
799.588257,329
799.707153,320
799.826111,341
799.945129,342
800.064087,315
800.183044,318
800.302063,333
800.421021,332
800.539978,329
800.658936,335
800.777893,331
800.896912,321
801.015747,324
801.134705,336
801.253723,327
801.37262,322
801.491638,325
801.610535,325
801.729492,339
801.84845,334
801.967407,327
802.086243,328
802.205261,325
802.324158,329
802.443115,325
802.562073,338
802.680969,328
802.799927,321
802.918762,341
803.037659,329
803.156677,317
803.275574,330
803.39447,337
803.513428,327
803.632263,330
803.751221,326
803.870117,314
803.989014,326
804.107971,314
804.226746,327
804.345642,328
804.4646,333
804.583496,330
804.702393,332
804.821228,321
804.940125,319
805.059021,335
805.177917,337
805.296814,334
805.415649,328
805.534546,330
805.653442,316
805.772278,325
805.891113,352
806.01001,332
806.128906,326
806.247742,331
806.366577,329
806.485413,340
806.604309,323
806.723145,326
806.84198,329
806.960876,342
807.079712,321
807.198486,321
807.317383,337
807.436218,326
807.554993,342
807.673889,330
807.792725,324
807.91156,326
808.030396,330
808.14917,331
808.268005,323
808.386841,322
808.505676,345
808.624451,329
808.743286,308
808.862122,334
808.980896,340
809.099731,323
809.218506,331
809.337341,343
809.456116,317
809.57489,336
809.693726,336
809.8125,325
809.931274,334
810.050049,327
810.168884,332
810.287659,330
810.406372,318
810.525269,348
810.643982,333
810.762756,316
810.881531,350
811.000305,317
811.11908,326
811.237854,342
811.356567,326
811.475403,339
811.594116,328
811.71283,343
811.831604,340
811.950378,330
812.069153,336
812.187927,321
812.30658,319
812.425415,330
812.544128,327
812.662781,324
812.781616,348
812.900269,332
813.019043,333
813.137756,336
813.256531,341
813.375244,333
813.493896,330
813.612671,329
813.731384,339
813.850037,341
813.96875,331
814.087524,335
814.206238,332
814.324951,333
814.443604,344
814.562256,323
814.68103,332
814.799683,331
814.918335,322
815.037109,311
815.155762,335
815.274475,324
815.393188,330
815.511841,324
815.630554,330
815.749146,321
815.867859,330
815.986572,337
816.105164,325
816.223877,338
816.342529,311
816.461182,313
816.579895,339
816.698486,324
816.817139,343
816.935791,329
817.054504,323
817.173096,339
817.291748,331
817.4104,331
817.529053,322
817.647644,326
817.766235,328
817.884949,331
818.00354,333
818.122192,332
818.240845,324
818.359436,333
818.478088,324
818.59668,337
818.715271,321
818.833923,316
818.952515,339
819.071106,321
819.189758,314
819.30835,323
819.426941,321
819.545532,321
819.664124,320
819.782715,315
819.901306,318
820.019897,329
820.138489,325
820.25708,315
820.375671,324
820.494202,330
820.612732,321
820.731384,307
820.849915,316
820.968506,322
821.087097,323
821.205627,316
821.324158,324
821.442749,313
821.561279,311
821.679871,322
821.798401,306
821.916931,308
822.035461,307
822.154053,324
822.272583,313
822.391174,325
822.509583,310
822.628174,314
822.746704,322
822.865234,323
822.983765,300
823.102295,307
823.220825,317
823.339294,318
823.457825,323
823.576355,324
823.694824,322
823.813354,331
823.931885,323
824.050354,306
824.168884,309
824.287354,322
824.405823,321
824.524353,319
824.642822,315
824.761353,320
824.879822,331
824.998291,314
825.116699,306
825.235291,317
825.353699,322
825.472168,310
825.590637,334
825.709106,311
825.827576,305
825.946045,326
826.064453,329
826.182983,303
826.301392,315
826.4198,318
826.53833,310
826.656738,312
826.775208,307
826.893677,316
827.012024,329
827.130493,310
827.248962,325
827.36731,293
827.485779,321
827.604248,332
827.722595,323
827.841064,336
827.959412,311
828.077942,322
828.196289,316
828.314636,323
828.433105,310
828.551514,303
828.669861,314
828.78833,309
828.906677,311
829.025085,322
829.143433,313
829.261841,322
829.38031,316
829.498657,312
829.617004,315
829.735413,325
829.85376,305
829.972107,316
830.090515,317
830.208862,313
830.327209,314
830.445557,302
830.563904,310
830.682312,309
830.800659,320
830.919006,320
831.037354,314
831.155701,329
831.274048,310
831.392395,319
831.51062,306
831.629028,307
831.747314,320
831.865662,310
831.984009,316
832.102356,317
832.220642,324
832.338928,307
832.457275,317
832.575623,310
832.693909,323
832.812134,314
832.930481,308
833.048828,310
833.167114,313
833.2854,315
833.403687,311
833.521973,304
833.640259,315
833.758545,327
833.876831,317
833.995056,303
834.113281,320
834.231628,308
834.349915,329
834.468201,314
834.586426,319
834.704651,323
834.822998,318
834.941162,313
835.059448,304
835.177673,318
835.295959,312
835.414246,310
835.53241,312
835.650635,308
835.768921,332
835.887146,316
836.005371,318
836.123596,319
836.241821,302
836.360046,337
836.478271,309
836.596497,310
836.714722,325
836.832886,302
836.95105,325
837.069336,312
837.1875,327
837.305725,321
837.423889,315
837.542053,306
837.660339,311
837.778503,315
837.896667,331
838.014832,309
838.132996,328
838.25116,329
838.369385,329
838.487488,312
838.605713,326
838.723877,325
838.84198,316
838.960205,312
839.078308,322
839.196472,319
839.314636,333
839.4328,316
839.550964,327
839.669067,315
839.787231,323
839.905396,331
840.023499,310
840.141602,321
840.259766,316
840.377869,307
840.495972,317
840.614136,329
840.732239,305
840.850342,317
840.968445,314
841.086548,318
841.204651,308
841.322754,310
841.440918,333
841.55896,317
841.677002,319
841.795166,328
841.913208,324
842.031311,313
842.149353,322
842.267456,316
842.385498,311
842.503601,304
842.621643,322
842.739746,320
842.857788,327
842.97583,319
843.093933,318
843.211975,321
843.330017,309
843.44812,322
843.566101,311
843.684204,297
843.802246,320
843.920227,313
844.038269,310
844.156311,317
844.274292,321
844.392395,311
844.510376,319
844.628357,330
844.74646,315
844.864441,302
844.982422,327
845.100403,303
845.218384,319
845.336426,304
845.454468,314
845.572449,313
845.69043,331
845.808411,317
845.926453,320
846.044373,322
846.162354,326
846.280396,320
846.398315,319
846.516296,322
846.634216,310
846.752197,319
846.870178,321
846.988098,317
847.106079,320
847.22406,298
847.34198,314
847.4599,326
847.577881,310
847.695801,306
847.813782,314
847.931641,323
848.049561,332
848.167603,315
848.285461,317
848.403381,319
848.521362,305
848.639221,300
848.75708,332
848.875,314
848.99292,320
849.110901,306
849.22876,320
849.34668,320
849.464539,321
849.582458,313
849.700317,301
849.818176,313
849.936096,320
850.053955,315
850.171875,315
850.289673,320
850.407593,322
850.525452,312
850.643311,311
850.761169,320
850.878967,325
850.996887,317
851.114746,320
851.232544,324
851.350403,313
851.468262,307
851.58606,317
851.703979,308
851.821777,310
851.939636,315
852.057434,324
852.175232,307
852.293091,325
852.410889,316
852.528687,328
852.646545,324
852.764343,313
852.88208,311
852.999939,328
853.117676,316
853.235535,328
853.353271,318
853.471069,319
853.588928,323
853.706604,318
853.824402,316
853.9422,309
854.059998,315
854.177734,315
854.295532,315
854.413269,321
854.531006,309
854.648804,309
854.766541,309
854.884277,320
855.002014,312
855.119751,318
855.237549,315
855.355225,314
855.473022,319
855.590698,311
855.708435,317
855.826172,322
855.943848,316
856.061646,326
856.179321,323
856.296997,302
856.414795,320
856.53241,313
856.650085,309
856.767822,314
856.885559,322
857.003174,335
857.120911,322
857.238586,306
857.356201,314
857.473938,319
857.591614,323
857.709351,306
857.826965,311
857.944641,314
858.062317,311
858.179993,314
858.297668,310
858.415283,307
858.532959,319
858.650574,302
858.768188,310
858.885803,325
859.003479,316
859.121094,324
859.23877,315
859.356384,304
859.473999,322
859.591675,309
859.709229,306
859.826843,327
859.944458,318
860.062012,314
860.179626,319
860.297302,320
860.414856,317
860.532471,320
860.650024,324
860.767639,309
860.885193,315
861.002808,320
861.120361,317
861.237976,321
861.35553,310
861.473022,306
861.590698,300
861.708191,316
861.825745,321
861.943298,317
862.060852,326
862.178406,328
862.295959,312
862.413513,319
862.531006,312
862.64856,307
862.766113,316
862.883667,315
863.00116,322
863.118713,315
863.236206,315
863.353699,315
863.471252,328
863.588745,305
863.706177,316
863.82373,314
863.941162,311
864.058716,315
864.176208,305
864.29364,311
864.411194,313
864.528687,324
864.646118,320
864.763611,310
864.881042,315
864.998535,312
865.116028,314
865.233459,326
865.350891,313
865.468384,300
865.585754,312
865.703308,320
865.820679,325
865.938171,326
866.055542,306
866.173035,315
866.290466,314
866.407837,324
866.52533,312
866.6427,317
866.760071,308
866.877563,317
866.994934,310
867.112305,329
867.229736,309
867.347107,318
867.464539,307
867.58197,321
867.699341,307
867.81665,325
867.934082,306
868.051453,308
868.168823,316
868.286194,327
868.403564,298
868.520935,328
868.638306,316
868.755676,313
868.872986,310
868.990295,319
869.107727,308
869.225037,315
869.342346,320
869.459717,312
869.577026,310
869.694336,318
869.811707,319
869.929016,324
870.046326,307
870.163635,320
870.280945,317
870.398254,317
870.515564,316
870.632812,309
870.750183,316
870.867432,310
870.984741,308
871.102051,321
871.219299,305
871.336609,318
871.453918,317
871.571106,317
871.688416,319
871.805664,318
871.922852,316
872.040222,327
872.157471,301
872.274719,314
872.391968,297
872.509155,313
872.626465,319
872.743652,308
872.860962,338
872.978149,318
873.095337,312
873.212646,330
873.329834,318
873.44696,316
873.564209,310
873.681396,310
873.798645,298
873.915894,332
874.03302,318
874.150208,316
874.267456,316
874.384583,313
874.501831,324
874.618958,322
874.736145,321
874.853333,323
874.970459,311
875.087646,321
875.204834,310
875.32196,314
875.439148,316
875.556274,317
875.673401,308
875.790527,324
875.907715,329
876.024841,318
876.141968,317
876.259094,304
876.376282,331
876.493347,309
876.610474,331
876.7276,321
876.844727,311
876.961853,311
877.078918,324
877.195984,307
877.313171,326
877.430237,327
877.547302,314
877.664368,311
877.781433,310
877.898499,313
878.015625,308
878.13269,320
878.249695,316
878.366821,318
878.483887,308
878.600952,325
878.717957,334
878.834961,321
878.952087,303
879.069092,321
879.186157,312
879.303162,328
879.420227,320
879.537231,303
879.654236,312
879.77124,312
879.888306,312
880.005249,296
880.122314,307
880.239319,323
880.356323,319
880.473328,317
880.590271,307
880.707275,311
880.824341,313
880.941284,324
881.058228,309
881.175232,301
881.292236,313
881.40918,312
881.526123,305
881.643066,315
881.760071,325
881.877014,329
881.993958,306
882.11084,309
882.227783,330
882.344727,324
882.46167,320
882.578613,315
882.695618,312
882.812439,315
882.929382,316
883.046326,316
883.163208,314
883.280151,302
883.397034,330
883.513916,322
883.630798,315
883.747742,327
883.864563,312
883.981506,316
884.098389,326
884.21521,305
884.332153,316
884.448975,320
884.565796,305
884.682678,309
884.7995,308
884.916443,317
885.033264,318
885.150085,331
885.266968,322
885.383789,323
885.500671,330
885.617493,316
885.734314,300
885.851196,312
885.967896,318
886.084717,319
886.201599,316
886.318359,332
886.435181,312
886.552002,318
886.668762,299
886.785645,303
886.902344,326
887.019165,318
887.135925,323
887.252747,322
887.369446,305
887.486267,316
887.603027,316
887.719788,328
887.836548,315
887.953247,320
888.070068,321
888.186829,313
888.303528,325
888.420288,325
888.536987,321
888.653687,321
888.770447,315
888.887146,327
889.003967,318
889.120667,312
889.237305,316
889.354065,314
889.470703,304
889.587463,327
889.704163,314
889.820862,321
889.937561,314
890.054199,314
890.170837,317
890.287598,317
890.404236,330
890.520874,316
890.637634,315
890.754211,312
890.87085,319
890.987549,322
891.104187,316
891.220886,319
891.337463,333
891.454102,309
891.57074,329
891.687378,318
891.804077,307
891.920654,320
892.037231,319
892.15387,325
892.270447,330
892.387085,317
892.503723,322
892.6203,323
892.736877,318
892.853516,326
892.970032,322
893.08667,312
893.203186,301
893.319763,320
893.43634,325
893.552917,323
893.669556,313
893.786011,311
893.902588,305
894.019165,307
894.135681,329
894.252197,311
894.368835,307
894.485291,321
894.601868,313
894.718384,323
894.8349,307
894.951355,314
895.067932,324
895.184448,326
895.300964,305
895.417419,314
895.533936,316
895.650452,324
895.766907,316
895.883423,325
895.999878,316
896.116333,316
896.232849,313
896.349304,326
896.465759,314
896.582214,318
896.698669,319
896.815125,313
896.931641,323
897.048035,325
897.164551,307
897.280884,324
897.397339,321
897.513794,307
897.630249,320
897.746582,324
897.863098,303
897.979431,317
898.095886,306
898.212341,307
898.328674,309
898.445129,315
898.561462,325
898.677795,314
898.794312,301
898.910645,312
899.026978,320
899.143433,325
899.259766,303
899.37616,319
899.492493,308
899.608765,316
899.725159,330
899.841553,315
899.957947,321
900.07428,310
900.190552,321
900.306946,328
900.423157,315
900.53949,311
900.655884,330
900.772156,308
900.888489,319
901.004822,326
901.121033,320
901.237366,319
901.353699,326
901.46991,310
901.586304,309
901.702515,321
901.818787,304
901.93512,321
902.051331,314
902.167603,319
902.283875,317
902.400085,316
902.516418,318
902.632629,325
902.74884,332
902.865112,320
902.981384,311
903.097595,315
903.213867,315
903.330017,318
903.446289,310
903.5625,319
903.67865,313
903.794922,317
903.911072,325
904.027344,315
904.143494,327
904.259705,319
904.375916,307
904.492065,312
904.608215,317
904.724426,308
904.840576,317
904.956726,319
905.072876,312
905.189087,316
905.305176,322
905.421387,303
905.537537,322
905.653687,313
905.769775,316
905.885925,311
906.002014,297
906.118164,322
906.234314,322
906.350403,321
906.466492,311
906.582642,312
906.69873,321
906.814758,327
906.930908,317
907.046936,318
907.163086,313
907.279175,316
907.395264,314
907.511353,304
907.62738,323
907.743408,330
907.859497,314
907.975525,320
908.091553,310
908.207703,313
908.32373,311
908.439758,332
908.555786,317
908.671814,317
908.787842,320
908.90387,326
909.019775,314
909.135864,320
909.251892,322
909.367859,324
909.483826,316
909.599854,320
909.715881,310
909.831848,326
909.947815,320
910.063782,314
910.179749,308
910.295776,318
910.411743,309
910.527649,309
910.643616,324
910.759583,312
910.875488,312
910.991455,335
911.107361,307
911.223267,316
911.339294,318
911.4552,319
911.571106,315
911.687073,326
911.802979,296
911.918823,331
912.034729,309
912.150635,307
912.266602,320
912.382446,306
912.498352,315
912.614197,323
912.730103,307
912.846008,325
792.44574,315
792.56488,341
792.68396,402
792.80304,374
792.92218,356
793.041199,302
793.160339,325
793.279419,337
793.398499,335
793.517578,320
793.636658,326
793.755737,342
793.874817,350
793.993896,340
794.112976,326
794.232056,330
794.351074,328
794.470215,330
794.589233,334
794.708313,338
794.827393,340
794.946411,337
795.065552,339
795.18457,322
795.303589,330
795.422668,315
795.541687,339
795.660767,329
795.779846,328
795.898865,320
796.017883,338
796.136963,314
796.255981,318
796.375061,330
796.49408,330
796.613037,332
796.732117,319
796.851135,329
796.970154,323
797.089233,327
797.208191,328
797.327271,332
797.446228,320
797.565186,329
797.684265,323
797.803223,336
797.922241,328
798.04126,327
798.160278,334
798.279297,319
798.398315,342
798.517273,333
798.636292,333
798.75531,329
798.874268,321
798.993286,334
799.112244,327
799.231323,312
799.350281,332
799.469238,348
799.588257,341
799.707153,338
799.826111,328
799.945129,314
800.064087,329
800.183044,336
800.302063,333
800.421021,327
800.539978,333
800.658936,313
800.777893,332
800.896912,332
801.015747,325
801.134705,336
801.253723,332
801.37262,327
801.491638,330
801.610535,329
801.729492,320
801.84845,325
801.967407,320
802.086243,323
802.205261,341
802.324158,310
802.443115,318
802.562073,325
802.680969,327
802.799927,319
802.918762,322
803.037659,329
803.156677,326
803.275574,326
803.39447,333
803.513428,311
803.632263,330
803.751221,322
803.870117,329
803.989014,324
804.107971,336
804.226746,329
804.345642,325
804.4646,317
804.583496,343
804.702393,317
804.821228,330
804.940125,328
805.059021,338
805.177917,324
805.296814,324
805.415649,335
805.534546,342
805.653442,337
805.772278,321
805.891113,328
806.01001,321
806.128906,336
806.247742,331
806.366577,323
806.485413,333
806.604309,337
806.723145,324
806.84198,337
806.960876,351
807.079712,316
807.198486,335
807.317383,324
807.436218,326
807.554993,330
807.673889,327
807.792725,329
807.91156,338
808.030396,325
808.14917,328
808.268005,334
808.386841,326
808.505676,334
808.624451,337
808.743286,338
808.862122,334
808.980896,325
809.099731,327
809.218506,324
809.337341,337
809.456116,319
809.57489,332
809.693726,316
809.8125,334
809.931274,333
810.050049,335
810.168884,325
810.287659,334
810.406372,333
810.525269,342
810.643982,326
810.762756,323
810.881531,325
811.000305,339
811.11908,320
811.237854,347
811.356567,334
811.475403,330
811.594116,335
811.71283,324
811.831604,341
811.950378,335
812.069153,325
812.187927,337
812.30658,339
812.425415,340
812.544128,329
812.662781,328
812.781616,328
812.900269,333
813.019043,321
813.137756,345
813.256531,336
813.375244,335
813.493896,328
813.612671,328
813.731384,339
813.850037,332
813.96875,339
814.087524,331
814.206238,322
814.324951,335
814.443604,330
814.562256,342
814.68103,339
814.799683,319
814.918335,320
815.037109,332
815.155762,345
815.274475,324
815.393188,332
815.511841,326
815.630554,323
815.749146,337
815.867859,325
815.986572,329
816.105164,325
816.223877,337
816.342529,335
816.461182,335
816.579895,325
816.698486,347
816.817139,325
816.935791,339
817.054504,334
817.173096,340
817.291748,330
817.4104,328
817.529053,332
817.647644,321
817.766235,316
817.884949,320
818.00354,313
818.122192,329
818.240845,333
818.359436,315
818.478088,322
818.59668,340
818.715271,323
818.833923,323
818.952515,315
819.071106,322
819.189758,305
819.30835,325
819.426941,315
819.545532,317
819.664124,323
819.782715,337
819.901306,308
820.019897,318
820.138489,317
820.25708,320
820.375671,323
820.494202,326
820.612732,309
820.731384,328
820.849915,316
820.968506,313
821.087097,314
821.205627,318
821.324158,311
821.442749,326
821.561279,315
821.679871,327
821.798401,322
821.916931,319
822.035461,308
822.154053,322
822.272583,319
822.391174,324
822.509583,316
822.628174,329
822.746704,322
822.865234,334
822.983765,310
823.102295,327
823.220825,322
823.339294,313
823.457825,309
823.576355,327
823.694824,313
823.813354,320
823.931885,314
824.050354,327
824.168884,319
824.287354,297
824.405823,316
824.524353,333
824.642822,307
824.761353,332
824.879822,307
824.998291,320
825.116699,319
825.235291,328
825.353699,315
825.472168,324
825.590637,310
825.709106,329
825.827576,303
825.946045,308
826.064453,325
826.182983,335
826.301392,315
826.4198,319
826.53833,313
826.656738,318
826.775208,308
826.893677,324
827.012024,308
827.130493,337
827.248962,316
827.36731,321
827.485779,314
827.604248,328
827.722595,321
827.841064,327
827.959412,323
828.077942,324
828.196289,324
828.314636,342
828.433105,320
828.551514,315
828.669861,305
828.78833,312
828.906677,310
829.025085,307
829.143433,316
829.261841,311
829.38031,326
829.498657,324
829.617004,318
829.735413,325
829.85376,314
829.972107,316
830.090515,315
830.208862,324
830.327209,316
830.445557,316
830.563904,307
830.682312,317
830.800659,311
830.919006,308
831.037354,308
831.155701,324
831.274048,316
831.392395,315
831.51062,322
831.629028,321
831.747314,326
831.865662,327
831.984009,310
832.102356,309
832.220642,323
832.338928,332
832.457275,308
832.575623,305
832.693909,326
832.812134,316
832.930481,324
833.048828,325
833.167114,314
833.2854,315
833.403687,309
833.521973,322
833.640259,311
833.758545,319
833.876831,321
833.995056,309
834.113281,331
834.231628,320
834.349915,312
834.468201,325
834.586426,323
834.704651,327
834.822998,320
834.941162,315
835.059448,330
835.177673,319
835.295959,321
835.414246,338
835.53241,316
835.650635,323
835.768921,314
835.887146,323
836.005371,310
836.123596,329
836.241821,319
836.360046,333
836.478271,322
836.596497,334
836.714722,312
836.832886,322
836.95105,315
837.069336,322
837.1875,314
837.305725,326
837.423889,322
837.542053,322
837.660339,315
837.778503,319
837.896667,327
838.014832,326
838.132996,306
838.25116,327
838.369385,313
838.487488,317
838.605713,321
838.723877,319
838.84198,319
838.960205,331
839.078308,310
839.196472,317
839.314636,295
839.4328,332
839.550964,306
839.669067,323
839.787231,312
839.905396,297
840.023499,307
840.141602,333
840.259766,323
840.377869,326
840.495972,322
840.614136,322
840.732239,319
840.850342,322
840.968445,325
841.086548,323
841.204651,325
841.322754,317
841.440918,322
841.55896,311
841.677002,317
841.795166,312
841.913208,304
842.031311,322
842.149353,311
842.267456,316
842.385498,306
842.503601,322
842.621643,318
842.739746,306
842.857788,326
842.97583,319
843.093933,316
843.211975,310
843.330017,302
843.44812,316
843.566101,320
843.684204,313
843.802246,313
843.920227,319
844.038269,309
844.156311,317
844.274292,320
844.392395,321
844.510376,321
844.628357,319
844.74646,320
844.864441,308
844.982422,301
845.100403,312
845.218384,308
845.336426,321
845.454468,311
845.572449,325
845.69043,312
845.808411,328
845.926453,311
846.044373,308
846.162354,320
846.280396,320
846.398315,330
846.516296,327
846.634216,323
846.752197,318
846.870178,326
846.988098,323
847.106079,316
847.22406,318
847.34198,315
847.4599,317
847.577881,308
847.695801,331
847.813782,310
847.931641,319
848.049561,311
848.167603,319
848.285461,306
848.403381,323
848.521362,318
848.639221,308
848.75708,322
848.875,310
848.99292,311
849.110901,323
849.22876,325
849.34668,307
849.464539,322
849.582458,322
849.700317,309
849.818176,321
849.936096,313
850.053955,336
850.171875,320
850.289673,319
850.407593,306
850.525452,321
850.643311,309
850.761169,313
850.878967,318
850.996887,313
851.114746,322
851.232544,329
851.350403,317
851.468262,309
851.58606,312
851.703979,313
851.821777,315
851.939636,320
852.057434,320
852.175232,320
852.293091,310
852.410889,328
852.528687,326
852.646545,311
852.764343,304
852.88208,318
852.999939,310
853.117676,315
853.235535,308
853.353271,321
853.471069,313
853.588928,315
853.706604,315
853.824402,298
853.9422,308
854.059998,315
854.177734,318
854.295532,317
854.413269,319
854.531006,309
854.648804,300
854.766541,342
854.884277,317
855.002014,316
855.119751,320
855.237549,320
855.355225,320
855.473022,317
855.590698,307
855.708435,328
855.826172,314
855.943848,326
856.061646,315
856.179321,315
856.296997,314
856.414795,326
856.53241,311
856.650085,320
856.767822,300
856.885559,312
857.003174,308
857.120911,322
857.238586,331
857.356201,322
857.473938,323
857.591614,324
857.709351,316
857.826965,328
857.944641,304
858.062317,310
858.179993,303
858.297668,323
858.415283,311
858.532959,315
858.650574,322
858.768188,305
858.885803,317
859.003479,312
859.121094,317
859.23877,324
859.356384,315
859.473999,312
859.591675,301
859.709229,308
859.826843,307
859.944458,303
860.062012,297
860.179626,333
860.297302,320
860.414856,321
860.532471,314
860.650024,329
860.767639,303
860.885193,309
861.002808,316
861.120361,317
861.237976,326
861.35553,312
861.473022,298
861.590698,322
861.708191,311
861.825745,319
861.943298,313
862.060852,317
862.178406,313
862.295959,322
862.413513,317
862.531006,310
862.64856,314
862.766113,313
862.883667,311
863.00116,317
863.118713,308
863.236206,310
863.353699,314
863.471252,309
863.588745,307
863.706177,323
863.82373,312
863.941162,318
864.058716,309
864.176208,317
864.29364,313
864.411194,315
864.528687,315
864.646118,316
864.763611,306
864.881042,316
864.998535,314
865.116028,314
865.233459,309
865.350891,318
865.468384,318
865.585754,329
865.703308,317
865.820679,308
865.938171,323
866.055542,317
866.173035,316
866.290466,326
866.407837,309
866.52533,319
866.6427,317
866.760071,314
866.877563,310
866.994934,323
867.112305,323
867.229736,323
867.347107,319
867.464539,316
867.58197,317
867.699341,323
867.81665,314
867.934082,324
868.051453,298
868.168823,321
868.286194,324
868.403564,322
868.520935,306
868.638306,314
868.755676,314
868.872986,326
868.990295,308
869.107727,316
869.225037,315
869.342346,315
869.459717,310
869.577026,336
869.694336,304
869.811707,309
869.929016,325
870.046326,323
870.163635,312
870.280945,326
870.398254,320
870.515564,325
870.632812,323
870.750183,319
870.867432,330
870.984741,319
871.102051,320
871.219299,314
871.336609,313
871.453918,308
871.571106,309
871.688416,325
871.805664,326
871.922852,334
872.040222,313
872.157471,323
872.274719,319
872.391968,332
872.509155,315
872.626465,327
872.743652,297
872.860962,317
872.978149,307
873.095337,314
873.212646,312
873.329834,319
873.44696,311
873.564209,316
873.681396,321
873.798645,319
873.915894,314
874.03302,315
874.150208,312
874.267456,312
874.384583,313
874.501831,332
874.618958,328
874.736145,334
874.853333,326
874.970459,317
875.087646,319
875.204834,304
875.32196,311
875.439148,326
875.556274,327
875.673401,297
875.790527,311
875.907715,316
876.024841,317
876.141968,312
876.259094,316
876.376282,329
876.493347,316
876.610474,327
876.7276,315
876.844727,331
876.961853,296
877.078918,321
877.195984,326
877.313171,322
877.430237,319
877.547302,332
877.664368,317
877.781433,321
877.898499,308
878.015625,321
878.13269,317
878.249695,327
878.366821,310
878.483887,317
878.600952,314
878.717957,328
878.834961,320
878.952087,327
879.069092,312
879.186157,322
879.303162,321
879.420227,312
879.537231,321
879.654236,313
879.77124,311
879.888306,324
880.005249,301
880.122314,309
880.239319,324
880.356323,319
880.473328,311
880.590271,334
880.707275,308
880.824341,322
880.941284,314
881.058228,322
881.175232,316
881.292236,311
881.40918,312
881.526123,320
881.643066,309
881.760071,323
881.877014,312
881.993958,311
882.11084,325
882.227783,326
882.344727,298
882.46167,314
882.578613,308
882.695618,326
882.812439,334
882.929382,320
883.046326,311
883.163208,324
883.280151,309
883.397034,328
883.513916,319
883.630798,331
883.747742,313
883.864563,340
883.981506,315
884.098389,324
884.21521,314
884.332153,333
884.448975,327
884.565796,328
884.682678,315
884.7995,324
884.916443,321
885.033264,320
885.150085,312
885.266968,328
885.383789,316
885.500671,319
885.617493,324
885.734314,312
885.851196,323
885.967896,327
886.084717,311
886.201599,309
886.318359,315
886.435181,325
886.552002,314
886.668762,318
886.785645,318
886.902344,322
887.019165,314
887.135925,319
887.252747,314
887.369446,319
887.486267,308
887.603027,320
887.719788,320
887.836548,323
887.953247,304
888.070068,316
888.186829,314
888.303528,319
888.420288,317
888.536987,326
888.653687,333
888.770447,310
888.887146,319
889.003967,319
889.120667,320
889.237305,323
889.354065,328
889.470703,315
889.587463,305
889.704163,326
889.820862,305
889.937561,348
890.054199,300
890.170837,311
890.287598,319
890.404236,311
890.520874,306
890.637634,333
890.754211,314
890.87085,311
890.987549,329
891.104187,329
891.220886,314
891.337463,324
891.454102,319
891.57074,315
891.687378,328
891.804077,329
891.920654,311
892.037231,326
892.15387,307
892.270447,324
892.387085,323
892.503723,318
892.6203,327
892.736877,319
892.853516,314
892.970032,319
893.08667,314
893.203186,338
893.319763,315
893.43634,318
893.552917,319
893.669556,322
893.786011,309
893.902588,320
894.019165,316
894.135681,327
894.252197,318
894.368835,328
894.485291,318
894.601868,318
894.718384,325
894.8349,320
894.951355,316
895.067932,328
895.184448,311
895.300964,320
895.417419,322
895.533936,329
895.650452,315
895.766907,317
895.883423,312
895.999878,309
896.116333,306
896.232849,322
896.349304,304
896.465759,323
896.582214,327
896.698669,315
896.815125,286
896.931641,341
897.048035,325
897.164551,327
897.280884,320
897.397339,330
897.513794,314
897.630249,319
897.746582,333
897.863098,312
897.979431,314
898.095886,327
898.212341,324
898.328674,315
898.445129,319
898.561462,305
898.677795,317
898.794312,318
898.910645,300
899.026978,306
899.143433,322
899.259766,314
899.37616,314
899.492493,307
899.608765,324
899.725159,318
899.841553,333
899.957947,304
900.07428,305
900.190552,315
900.306946,313
900.423157,339
900.53949,305
900.655884,320
900.772156,322
900.888489,324
901.004822,309
901.121033,315
901.237366,321
901.353699,321
901.46991,302
901.586304,331
901.702515,305
901.818787,325
901.93512,310
902.051331,330
902.167603,318
902.283875,320
902.400085,324
902.516418,324
902.632629,303
902.74884,323
902.865112,310
902.981384,328
903.097595,317
903.213867,325
903.330017,313
903.446289,326
903.5625,322
903.67865,321
903.794922,318
903.911072,316
904.027344,313
904.143494,317
904.259705,308
904.375916,332
904.492065,330
904.608215,322
904.724426,321
904.840576,324
904.956726,315
905.072876,329
905.189087,313
905.305176,313
905.421387,320
905.537537,319
905.653687,321
905.769775,323
905.885925,310
906.002014,316
906.118164,322
906.234314,327
906.350403,306
906.466492,314
906.582642,325
906.69873,315
906.814758,310
906.930908,315
907.046936,317
907.163086,312
907.279175,312
907.395264,327
907.511353,314
907.62738,323
907.743408,312
907.859497,324
907.975525,314
908.091553,320
908.207703,314
908.32373,323
908.439758,310
908.555786,332
908.671814,313
908.787842,312
908.90387,326
909.019775,322
909.135864,324
909.251892,326
909.367859,312
909.483826,320
909.599854,312
909.715881,324
909.831848,328
909.947815,316
910.063782,321
910.179749,313
910.295776,316
910.411743,323
910.527649,317
910.643616,320
910.759583,297
910.875488,320
910.991455,308
911.107361,322
911.223267,323
911.339294,326
911.4552,321
911.571106,327
911.687073,317
911.802979,327
911.918823,314
912.034729,318
912.150635,307
912.266602,336
912.382446,333
912.498352,324
912.614197,316
912.730103,333
912.846008,303
792.44574,295
792.56488,348
792.68396,400
792.80304,385
792.92218,352
793.041199,308
793.160339,314
793.279419,345
793.398499,335
793.517578,299
793.636658,310
793.755737,335
793.874817,351
793.993896,334
794.112976,328
794.232056,328
794.351074,333
794.470215,325
794.589233,335
794.708313,335
794.827393,335
794.946411,323
795.065552,332
795.18457,343
795.303589,333
795.422668,319
795.541687,326
795.660767,344
795.779846,338
795.898865,327
796.017883,331
796.136963,341
796.255981,345
796.375061,332
796.49408,333
796.613037,328
796.732117,319
796.851135,343
796.970154,318
797.089233,326
797.208191,343
797.327271,325
797.446228,321
797.565186,335
797.684265,320
797.803223,331
797.922241,327
798.04126,317
798.160278,320
798.279297,322
798.398315,327
798.517273,324
798.636292,333
798.75531,338
798.874268,326
798.993286,337
799.112244,326
799.231323,321
799.350281,325
799.469238,327
799.588257,325
799.707153,327
799.826111,318
799.945129,328
800.064087,321
800.183044,331
800.302063,324
800.421021,326
800.539978,324
800.658936,331
800.777893,326
800.896912,327
801.015747,342
801.134705,328
801.253723,330
801.37262,323
801.491638,315
801.610535,322
801.729492,343
801.84845,336
801.967407,317
802.086243,329
802.205261,332
802.324158,329
802.443115,339
802.562073,333
802.680969,326
802.799927,332
802.918762,326
803.037659,331
803.156677,323
803.275574,323
803.39447,327
803.513428,337
803.632263,322
803.751221,328
803.870117,316
803.989014,326
804.107971,325
804.226746,338
804.345642,326
804.4646,329
804.583496,330
804.702393,320
804.821228,337
804.940125,324
805.059021,324
805.177917,324
805.296814,332
805.415649,320
805.534546,331
805.653442,336
805.772278,337
805.891113,338
806.01001,323
806.128906,339
806.247742,335
806.366577,328
806.485413,323
806.604309,344
806.723145,329
806.84198,326
806.960876,329
807.079712,322
807.198486,337
807.317383,345
807.436218,320
807.554993,335
807.673889,323
807.792725,336
807.91156,334
808.030396,328
808.14917,315
808.268005,322
808.386841,327
808.505676,333
808.624451,338
808.743286,331
808.862122,338
808.980896,322
809.099731,349
809.218506,321
809.337341,326
809.456116,331
809.57489,341
809.693726,327
809.8125,331
809.931274,325
810.050049,326
810.168884,320
810.287659,330
810.406372,343
810.525269,335
810.643982,323
810.762756,325
810.881531,329
811.000305,341
811.11908,343
811.237854,334
811.356567,331
811.475403,328
811.594116,337
811.71283,324
811.831604,315
811.950378,334
812.069153,330
812.187927,325
812.30658,320
812.425415,329
812.544128,324
812.662781,335
812.781616,322
812.900269,331
813.019043,334
813.137756,330
813.256531,346
813.375244,321
813.493896,332
813.612671,334
813.731384,335
813.850037,329
813.96875,332
814.087524,334
814.206238,326
814.324951,330
814.443604,313
814.562256,332
814.68103,329
814.799683,323
814.918335,330
815.037109,323
815.155762,333
815.274475,328
815.393188,325
815.511841,330
815.630554,319
815.749146,328
815.867859,338
815.986572,321
816.105164,330
816.223877,337
816.342529,334
816.461182,315
816.579895,336
816.698486,334
816.817139,330
816.935791,323
817.054504,340
817.173096,333
817.291748,325
817.4104,335
817.529053,323
817.647644,329
817.766235,326
817.884949,324
818.00354,334
818.122192,319
818.240845,327
818.359436,321
818.478088,334
818.59668,312
818.715271,318
818.833923,316
818.952515,329
819.071106,314
819.189758,324
819.30835,324
819.426941,320
819.545532,307
819.664124,318
819.782715,318
819.901306,329
820.019897,316
820.138489,321
820.25708,312
820.375671,319
820.494202,330
820.612732,327
820.731384,318
820.849915,317
820.968506,314
821.087097,327
821.205627,318
821.324158,322
821.442749,326
821.561279,325
821.679871,330
821.798401,337
821.916931,317
822.035461,321
822.154053,313
822.272583,315
822.391174,314
822.509583,331
822.628174,313
822.746704,321
822.865234,317
822.983765,314
823.102295,316
823.220825,306
823.339294,314
823.457825,313
823.576355,321
823.694824,325
823.813354,309
823.931885,316
824.050354,315
824.168884,320
824.287354,307
824.405823,319
824.524353,329
824.642822,314
824.761353,333
824.879822,315
824.998291,326
825.116699,332
825.235291,316
825.353699,320
825.472168,316
825.590637,315
825.709106,323
825.827576,320
825.946045,321
826.064453,322
826.182983,316
826.301392,317
826.4198,323
826.53833,326
826.656738,311
826.775208,319
826.893677,325
827.012024,320
827.130493,324
827.248962,303
827.36731,308
827.485779,311
827.604248,302
827.722595,318
827.841064,307
827.959412,313
828.077942,299
828.196289,311
828.314636,321
828.433105,325
828.551514,315
828.669861,316
828.78833,313
828.906677,324
829.025085,316
829.143433,319
829.261841,316
829.38031,318
829.498657,317
829.617004,311
829.735413,310
829.85376,323
829.972107,305
830.090515,331
830.208862,322
830.327209,316
830.445557,325
830.563904,308
830.682312,305
830.800659,312
830.919006,300
831.037354,321
831.155701,325
831.274048,316
831.392395,310
831.51062,319
831.629028,320
831.747314,315
831.865662,328
831.984009,319
832.102356,310
832.220642,316
832.338928,303
832.457275,310
832.575623,334
832.693909,328
832.812134,319
832.930481,298
833.048828,314
833.167114,327
833.2854,324
833.403687,317
833.521973,312
833.640259,315
833.758545,297
833.876831,314
833.995056,308
834.113281,318
834.231628,319
834.349915,314
834.468201,307
834.586426,319
834.704651,315
834.822998,320
834.941162,324
835.059448,310
835.177673,319
835.295959,325
835.414246,325
835.53241,315
835.650635,310
835.768921,321
835.887146,312
836.005371,317
836.123596,316
836.241821,321
836.360046,316
836.478271,317
836.596497,322
836.714722,325
836.832886,308
836.95105,327
837.069336,310
837.1875,324
837.305725,304
837.423889,319
837.542053,317
837.660339,322
837.778503,321
837.896667,316
838.014832,319
838.132996,314
838.25116,305
838.369385,328
838.487488,318
838.605713,331
838.723877,321
838.84198,315
838.960205,308
839.078308,311
839.196472,315
839.314636,310
839.4328,319
839.550964,324
839.669067,321
839.787231,317
839.905396,319
840.023499,325
840.141602,313
840.259766,318
840.377869,306
840.495972,313
840.614136,298
840.732239,312
840.850342,311
840.968445,302
841.086548,313
841.204651,313
841.322754,318
841.440918,314
841.55896,301
841.677002,326
841.795166,312
841.913208,321
842.031311,318
842.149353,325
842.267456,315
842.385498,325
842.503601,317
842.621643,326
842.739746,303
842.857788,316
842.97583,316
843.093933,313
843.211975,318
843.330017,322
843.44812,324
843.566101,315
843.684204,310
843.802246,315
843.920227,314
844.038269,322
844.156311,322
844.274292,324
844.392395,303
844.510376,306
844.628357,330
844.74646,319
844.864441,305
844.982422,319
845.100403,320
845.218384,316
845.336426,312
845.454468,324
845.572449,317
845.69043,322
845.808411,307
845.926453,316
846.044373,327
846.162354,323
846.280396,317
846.398315,314
846.516296,314
846.634216,303
846.752197,310
846.870178,327
846.988098,316
847.106079,314
847.22406,312
847.34198,318
847.4599,308
847.577881,304
847.695801,323
847.813782,327
847.931641,303
848.049561,313
848.167603,321
848.285461,324
848.403381,327
848.521362,308
848.639221,308
848.75708,299
848.875,313
848.99292,310
849.110901,321
849.22876,315
849.34668,330
849.464539,314
849.582458,318
849.700317,300
849.818176,314
849.936096,321
850.053955,310
850.171875,317
850.289673,314
850.407593,326
850.525452,309
850.643311,310
850.761169,328
850.878967,315
850.996887,314
851.114746,328
851.232544,305
851.350403,320
851.468262,331
851.58606,307
851.703979,311
851.821777,318
851.939636,320
852.057434,305
852.175232,322
852.293091,333
852.410889,312
852.528687,323
852.646545,322
852.764343,330
852.88208,313
852.999939,309
853.117676,320
853.235535,322
853.353271,316
853.471069,309
853.588928,316
853.706604,325
853.824402,323
853.9422,324
854.059998,315
854.177734,310
854.295532,313
854.413269,322
854.531006,313
854.648804,315
854.766541,311
854.884277,335
855.002014,324
855.119751,312
855.237549,312
855.355225,318
855.473022,320
855.590698,336
855.708435,297
855.826172,305
855.943848,317
856.061646,322
856.179321,319
856.296997,316
856.414795,318
856.53241,316
856.650085,324
856.767822,319
856.885559,307
857.003174,322
857.120911,305
857.238586,319
857.356201,307
857.473938,315
857.591614,337
857.709351,320
857.826965,317
857.944641,330
858.062317,291
858.179993,318
858.297668,309
858.415283,321
858.532959,309
858.650574,316
858.768188,318
858.885803,315
859.003479,327
859.121094,317
859.23877,313
859.356384,321
859.473999,319
859.591675,311
859.709229,323
859.826843,311
859.944458,322
860.062012,323
860.179626,322
860.297302,317
860.414856,307
860.532471,310
860.650024,306
860.767639,312
860.885193,311
861.002808,315
861.120361,313
861.237976,319
861.35553,312
861.473022,330
861.590698,316
861.708191,318
861.825745,311
861.943298,320
862.060852,301
862.178406,317
862.295959,316
862.413513,311
862.531006,326
862.64856,326
862.766113,310
862.883667,329
863.00116,306
863.118713,314
863.236206,309
863.353699,313
863.471252,303
863.588745,319
863.706177,321
863.82373,321
863.941162,320
864.058716,304
864.176208,325
864.29364,327
864.411194,323
864.528687,310
864.646118,319
864.763611,322
864.881042,326
864.998535,330
865.116028,322
865.233459,304
865.350891,308
865.468384,330
865.585754,316
865.703308,314
865.820679,321
865.938171,321
866.055542,305
866.173035,322
866.290466,317
866.407837,330
866.52533,324
866.6427,327
866.760071,325
866.877563,315
866.994934,317
867.112305,322
867.229736,319
867.347107,310
867.464539,309
867.58197,326
867.699341,307
867.81665,318
867.934082,297
868.051453,307
868.168823,315
868.286194,317
868.403564,322
868.520935,325
868.638306,312
868.755676,326
868.872986,297
868.990295,312
869.107727,318
869.225037,321
869.342346,316
869.459717,315
869.577026,317
869.694336,336
869.811707,321
869.929016,321
870.046326,315
870.163635,331
870.280945,319
870.398254,314
870.515564,309
870.632812,312
870.750183,308
870.867432,314
870.984741,324
871.102051,316
871.219299,317
871.336609,308
871.453918,316
871.571106,316
871.688416,320
871.805664,314
871.922852,333
872.040222,317
872.157471,317
872.274719,320
872.391968,314
872.509155,314
872.626465,324
872.743652,311
872.860962,307
872.978149,317
873.095337,313
873.212646,307
873.329834,305
873.44696,327
873.564209,314
873.681396,325
873.798645,319
873.915894,329
874.03302,303
874.150208,310
874.267456,312
874.384583,330
874.501831,305
874.618958,325
874.736145,325
874.853333,322
874.970459,325
875.087646,315
875.204834,315
875.32196,308
875.439148,309
875.556274,306
875.673401,320
875.790527,329
875.907715,309
876.024841,305
876.141968,313
876.259094,306
876.376282,315
876.493347,322
876.610474,317
876.7276,316
876.844727,315
876.961853,319
877.078918,303
877.195984,304
877.313171,326
877.430237,309
877.547302,325
877.664368,317
877.781433,321
877.898499,332
878.015625,315
878.13269,323
878.249695,307
878.366821,326
878.483887,313
878.600952,323
878.717957,317
878.834961,326
878.952087,322
879.069092,332
879.186157,319
879.303162,318
879.420227,325
879.537231,326
879.654236,313
879.77124,320
879.888306,309
880.005249,316
880.122314,318
880.239319,317
880.356323,323
880.473328,332
880.590271,317
880.707275,321
880.824341,313
880.941284,310
881.058228,325
881.175232,316
881.292236,315
881.40918,319
881.526123,329
881.643066,319
881.760071,306
881.877014,330
881.993958,307
882.11084,317
882.227783,320
882.344727,314
882.46167,311
882.578613,319
882.695618,309
882.812439,320
882.929382,319
883.046326,321
883.163208,304
883.280151,322
883.397034,312
883.513916,312
883.630798,324
883.747742,314
883.864563,313
883.981506,316
884.098389,304
884.21521,313
884.332153,313
884.448975,312
884.565796,307
884.682678,319
884.7995,310
884.916443,316
885.033264,306
885.150085,326
885.266968,309
885.383789,329
885.500671,311
885.617493,316
885.734314,326
885.851196,311
885.967896,324
886.084717,314
886.201599,309
886.318359,335
886.435181,311
886.552002,324
886.668762,322
886.785645,317
886.902344,318
887.019165,306
887.135925,308
887.252747,330
887.369446,300
887.486267,310
887.603027,307
887.719788,310
887.836548,297
887.953247,312
888.070068,317
888.186829,319
888.303528,328
888.420288,329
888.536987,319
888.653687,311
888.770447,304
888.887146,322
889.003967,325
889.120667,319
889.237305,298
889.354065,299
889.470703,308
889.587463,316
889.704163,306
889.820862,300
889.937561,322
890.054199,329
890.170837,304
890.287598,318
890.404236,306
890.520874,320
890.637634,315
890.754211,320
890.87085,307
890.987549,325
891.104187,306
891.220886,328
891.337463,318
891.454102,316
891.57074,317
891.687378,318
891.804077,306
891.920654,333
892.037231,308
892.15387,310
892.270447,302
892.387085,325
892.503723,338
892.6203,314
892.736877,315
892.853516,318
892.970032,321
893.08667,315
893.203186,301
893.319763,315
893.43634,314
893.552917,330
893.669556,322
893.786011,299
893.902588,316
894.019165,338
894.135681,322
894.252197,315
894.368835,316
894.485291,329
894.601868,319
894.718384,324
894.8349,314
894.951355,322
895.067932,325
895.184448,306
895.300964,332
895.417419,318
895.533936,320
895.650452,337
895.766907,315
895.883423,334
895.999878,313
896.116333,316
896.232849,305
896.349304,316
896.465759,317
896.582214,311
896.698669,310
896.815125,325
896.931641,329
897.048035,335
897.164551,310
897.280884,312
897.397339,322
897.513794,312
897.630249,312
897.746582,339
897.863098,317
897.979431,322
898.095886,312
898.212341,328
898.328674,322
898.445129,323
898.561462,328
898.677795,325
898.794312,315
898.910645,319
899.026978,317
899.143433,326
899.259766,301
899.37616,335
899.492493,308
899.608765,320
899.725159,324
899.841553,313
899.957947,321
900.07428,315
900.190552,306
900.306946,329
900.423157,323
900.53949,324
900.655884,317
900.772156,312
900.888489,322
901.004822,319
901.121033,304
901.237366,317
901.353699,314
901.46991,335
901.586304,316
901.702515,308
901.818787,302
901.93512,317
902.051331,316
902.167603,314
902.283875,310
902.400085,314
902.516418,310
902.632629,324
902.74884,307
902.865112,322
902.981384,317
903.097595,320
903.213867,327
903.330017,322
903.446289,320
903.5625,329
903.67865,309
903.794922,318
903.911072,309
904.027344,322
904.143494,321
904.259705,314
904.375916,321
904.492065,306
904.608215,315
904.724426,325
904.840576,323
904.956726,315
905.072876,302
905.189087,323
905.305176,313
905.421387,321
905.537537,321
905.653687,311
905.769775,319
905.885925,319
906.002014,315
906.118164,328
906.234314,326
906.350403,326
906.466492,324
906.582642,322
906.69873,323
906.814758,318
906.930908,314
907.046936,335
907.163086,329
907.279175,324
907.395264,324
907.511353,319
907.62738,316
907.743408,306
907.859497,314
907.975525,318
908.091553,306
908.207703,330
908.32373,326
908.439758,316
908.555786,312
908.671814,312
908.787842,307
908.90387,316
909.019775,315
909.135864,317
909.251892,319
909.367859,314
909.483826,297
909.599854,331
909.715881,311
909.831848,321
909.947815,313
910.063782,321
910.179749,326
910.295776,308
910.411743,309
910.527649,323
910.643616,314
910.759583,330
910.875488,313
910.991455,313
911.107361,310
911.223267,315
911.339294,316
911.4552,297
911.571106,319
911.687073,320
911.802979,319
911.918823,332
912.034729,320
912.150635,318
912.266602,323
912.382446,307
912.498352,320
912.614197,315
912.730103,323
912.846008,310
