792.44574,312
792.56488,345
792.68396,391
792.80304,366
792.92218,333
793.041199,315
793.160339,307
793.279419,323
793.398499,326
793.517578,304
793.636658,310
793.755737,311
793.874817,332
793.993896,342
794.112976,327
794.232056,320
794.351074,322
794.470215,325
794.589233,323
794.708313,328
794.827393,321
794.946411,305
795.065552,335
795.18457,328
795.303589,342
795.422668,321
795.541687,320
795.660767,321
795.779846,312
795.898865,332
796.017883,311
796.136963,325
796.255981,336
796.375061,328
796.49408,320
796.613037,315
796.732117,324
796.851135,326
796.970154,319
797.089233,328
797.208191,328
797.327271,322
797.446228,328
797.565186,317
797.684265,324
797.803223,312
797.922241,327
798.04126,314
798.160278,315
798.279297,313
798.398315,335
798.517273,340
798.636292,318
798.75531,330
798.874268,313
798.993286,333
799.112244,318
799.231323,321
799.350281,326
799.469238,323
799.588257,316
799.707153,302
799.826111,313
799.945129,321
800.064087,320
800.183044,324
800.302063,301
800.421021,319
800.539978,322
800.658936,325
800.777893,329
800.896912,333
801.015747,326
801.134705,330
801.253723,322
801.37262,315
801.491638,318
801.610535,325
801.729492,327
801.84845,317
801.967407,321
802.086243,320
802.205261,310
802.324158,311
802.443115,323
802.562073,317
802.680969,320
802.799927,304
802.918762,317
803.037659,314
803.156677,325
803.275574,325
803.39447,320
803.513428,333
803.632263,319
803.751221,319
803.870117,322
803.989014,314
804.107971,323
804.226746,310
804.345642,324
804.4646,324
804.583496,317
804.702393,318
804.821228,313
804.940125,321
805.059021,325
805.177917,316
805.296814,330
805.415649,321
805.534546,321
805.653442,316
805.772278,331
805.891113,322
806.01001,329
806.128906,316
806.247742,333
806.366577,324
806.485413,320
806.604309,310
806.723145,313
806.84198,304
806.960876,316
807.079712,315
807.198486,312
807.317383,328
807.436218,323
807.554993,323
807.673889,318
807.792725,323
807.91156,336
808.030396,315
808.14917,322
808.268005,327
808.386841,307
808.505676,321
808.624451,324
808.743286,336
808.862122,305
808.980896,314
809.099731,324
809.218506,318
809.337341,309
809.456116,317
809.57489,309
809.693726,325
809.8125,306
809.931274,338
810.050049,322
810.168884,330
810.287659,325
810.406372,314
810.525269,320
810.643982,325
810.762756,324
810.881531,307
811.000305,325
811.11908,316
811.237854,313
811.356567,324
811.475403,320
811.594116,318
811.71283,321
811.831604,317
811.950378,312
812.069153,309
812.187927,319
812.30658,316
812.425415,315
812.544128,322
812.662781,310
812.781616,323
812.900269,326
813.019043,316
813.137756,321
813.256531,315
813.375244,330
813.493896,313
813.612671,319
813.731384,308
813.850037,324
813.96875,322
814.087524,333
814.206238,321
814.324951,320
814.443604,327
814.562256,330
814.68103,322
814.799683,331
814.918335,309
815.037109,315
815.155762,321
815.274475,323
815.393188,321
815.511841,319
815.630554,321
815.749146,329
815.867859,320
815.986572,319
816.105164,311
816.223877,313
816.342529,317
816.461182,323
816.579895,318
816.698486,311
816.817139,321
816.935791,316
817.054504,332
817.173096,320
817.291748,326
817.4104,316
817.529053,306
817.647644,319
817.766235,323
817.884949,319
818.00354,309
818.122192,315
818.240845,307
818.359436,323
818.478088,322
818.59668,319
818.715271,313
818.833923,318
818.952515,321
819.071106,318
819.189758,318
819.30835,318
819.426941,316
819.545532,321
819.664124,314
819.782715,316
819.901306,305
820.019897,339
820.138489,309
820.25708,316
820.375671,324
820.494202,314
820.612732,335
820.731384,305
820.849915,306
820.968506,325
821.087097,315
821.205627,323
821.324158,308
821.442749,307
821.561279,318
821.679871,315
821.798401,315
821.916931,308
822.035461,305
822.154053,326
822.272583,321
822.391174,325
822.509583,316
822.628174,312
822.746704,317
822.865234,321
822.983765,299
823.102295,314
823.220825,304
823.339294,316
823.457825,324
823.576355,328
823.694824,318
823.813354,313
823.931885,312
824.050354,314
824.168884,303
824.287354,322
824.405823,314
824.524353,321
824.642822,313
824.761353,322
824.879822,315
824.998291,328
825.116699,309
825.235291,297
825.353699,332
825.472168,315
825.590637,313
825.709106,320
825.827576,306
825.946045,321
826.064453,300
826.182983,322
826.301392,320
826.4198,308
826.53833,312
826.656738,319
826.775208,318
826.893677,319
827.012024,305
827.130493,326
827.248962,321
827.36731,322
827.485779,311
827.604248,320
827.722595,310
827.841064,315
827.959412,321
828.077942,317
828.196289,301
828.314636,328
828.433105,316
828.551514,312
828.669861,331
828.78833,307
828.906677,322
829.025085,319
829.143433,323
829.261841,320
829.38031,303
829.498657,320
829.617004,313
829.735413,319
829.85376,317
829.972107,323
830.090515,311
830.208862,316
830.327209,310
830.445557,325
830.563904,305
830.682312,313
830.800659,312
830.919006,309
831.037354,297
831.155701,327
831.274048,311
831.392395,327
831.51062,328
831.629028,318
831.747314,306
831.865662,310
831.984009,324
832.102356,321
832.220642,320
832.338928,310
832.457275,316
832.575623,314
832.693909,307
832.812134,306
832.930481,310
833.048828,318
833.167114,323
833.2854,324
833.403687,311
833.521973,318
833.640259,329
833.758545,324
833.876831,313
833.995056,310
834.113281,323
834.231628,317
834.349915,306
834.468201,321
834.586426,308
834.704651,331
834.822998,314
834.941162,318
835.059448,320
835.177673,319
835.295959,314
835.414246,314
835.53241,322
835.650635,320
835.768921,298
835.887146,312
836.005371,316
836.123596,324
836.241821,318
836.360046,325
836.478271,315
836.596497,323
836.714722,297
836.832886,318
836.95105,315
837.069336,321
837.1875,313
837.305725,321
837.423889,321
837.542053,310
837.660339,322
837.778503,315
837.896667,323
838.014832,326
838.132996,312
838.25116,316
838.369385,314
838.487488,319
838.605713,300
838.723877,323
838.84198,314
838.960205,317
839.078308,311
839.196472,316
839.314636,321
839.4328,316
839.550964,315
839.669067,317
839.787231,318
839.905396,332
840.023499,317
840.141602,315
840.259766,307
840.377869,317
840.495972,306
840.614136,316
840.732239,308
840.850342,321
840.968445,325
841.086548,321
841.204651,304
841.322754,311
841.440918,320
841.55896,303
841.677002,326
841.795166,319
841.913208,320
842.031311,301
842.149353,308
842.267456,315
842.385498,308
842.503601,312
842.621643,313
842.739746,329
842.857788,313
842.97583,315
843.093933,321
843.211975,318
843.330017,316
843.44812,339
843.566101,316
843.684204,315
843.802246,320
843.920227,307
844.038269,321
844.156311,324
844.274292,316
844.392395,311
844.510376,310
844.628357,324
844.74646,319
844.864441,321
844.982422,308
845.100403,312
845.218384,311
845.336426,318
845.454468,311
845.572449,313
845.69043,315
845.808411,306
845.926453,311
846.044373,317
846.162354,313
846.280396,312
846.398315,315
846.516296,335
846.634216,320
846.752197,321
846.870178,318
846.988098,309
847.106079,312
847.22406,308
847.34198,312
847.4599,314
847.577881,303
847.695801,317
847.813782,312
847.931641,321
848.049561,309
848.167603,307
848.285461,307
848.403381,318
848.521362,327
848.639221,306
848.75708,309
848.875,319
848.99292,305
849.110901,310
849.22876,308
849.34668,315
849.464539,311
849.582458,317
849.700317,320
849.818176,303
849.936096,305
850.053955,319
850.171875,300
850.289673,325
850.407593,303
850.525452,317
850.643311,325
850.761169,311
850.878967,315
850.996887,326
851.114746,324
851.232544,326
851.350403,317
851.468262,312
851.58606,309
851.703979,326
851.821777,303
851.939636,319
852.057434,310
852.175232,325
852.293091,316
852.410889,316
852.528687,317
852.646545,329
852.764343,316
852.88208,324
852.999939,301
853.117676,320
853.235535,318
853.353271,314
853.471069,314
853.588928,314
853.706604,303
853.824402,307
853.9422,309
854.059998,326
854.177734,316
854.295532,323
854.413269,319
854.531006,327
854.648804,316
854.766541,314
854.884277,321
855.002014,319
855.119751,307
855.237549,309
855.355225,321
855.473022,317
855.590698,318
855.708435,329
855.826172,310
855.943848,319
856.061646,305
856.179321,312
856.296997,326
856.414795,308
856.53241,315
856.650085,322
856.767822,310
856.885559,322
857.003174,317
857.120911,318
857.238586,321
857.356201,317
857.473938,309
857.591614,319
857.709351,319
857.826965,330
857.944641,326
858.062317,322
858.179993,316
858.297668,313
858.415283,316
858.532959,318
858.650574,310
858.768188,329
858.885803,320
859.003479,310
859.121094,323
859.23877,314
859.356384,307
859.473999,316
859.591675,306
859.709229,307
859.826843,300
859.944458,318
860.062012,311
860.179626,325
860.297302,311
860.414856,317
860.532471,309
860.650024,314
860.767639,305
860.885193,322
861.002808,312
861.120361,320
861.237976,311
861.35553,330
861.473022,315
861.590698,315
861.708191,314
861.825745,324
861.943298,328
862.060852,322
862.178406,316
862.295959,316
862.413513,316
862.531006,325
862.64856,315
862.766113,327
862.883667,305
863.00116,317
863.118713,314
863.236206,321
863.353699,317
863.471252,323
863.588745,303
863.706177,321
863.82373,297
863.941162,334
864.058716,306
864.176208,317
864.29364,324
864.411194,321
864.528687,314
864.646118,326
864.763611,306
864.881042,326
864.998535,313
865.116028,326
865.233459,309
865.350891,305
865.468384,319
865.585754,324
865.703308,311
865.820679,319
865.938171,314
866.055542,315
866.173035,316
866.290466,317
866.407837,312
866.52533,330
866.6427,303
866.760071,326
866.877563,315
866.994934,321
867.112305,305
867.229736,323
867.347107,319
867.464539,309
867.58197,322
867.699341,312
867.81665,309
867.934082,317
868.051453,308
868.168823,314
868.286194,321
868.403564,321
868.520935,313
868.638306,329
868.755676,312
868.872986,314
868.990295,324
869.107727,311
869.225037,305
869.342346,312
869.459717,310
869.577026,317
869.694336,316
869.811707,317
869.929016,317
870.046326,330
870.163635,305
870.280945,315
870.398254,319
870.515564,324
870.632812,316
870.750183,321
870.867432,324
870.984741,313
871.102051,319
871.219299,309
871.336609,326
871.453918,324
871.571106,321
871.688416,318
871.805664,305
871.922852,312
872.040222,314
872.157471,321
872.274719,311
872.391968,320
872.509155,318
872.626465,326
872.743652,314
872.860962,312
872.978149,321
873.095337,316
873.212646,321
873.329834,319
873.44696,316
873.564209,307
873.681396,327
873.798645,319
873.915894,318
874.03302,316
874.150208,305
874.267456,339
874.384583,316
874.501831,319
874.618958,325
874.736145,322
874.853333,326
874.970459,317
875.087646,307
875.204834,324
875.32196,320
875.439148,322
875.556274,308
875.673401,330
875.790527,318
875.907715,310
876.024841,309
876.141968,315
876.259094,315
876.376282,313
876.493347,322
876.610474,324
876.7276,305
876.844727,305
876.961853,302
877.078918,342
877.195984,317
877.313171,300
877.430237,310
877.547302,320
877.664368,319
877.781433,319
877.898499,310
878.015625,310
878.13269,311
878.249695,310
878.366821,319
878.483887,303
878.600952,319
878.717957,318
878.834961,301
878.952087,314
879.069092,325
879.186157,315
879.303162,312
879.420227,331
879.537231,318
879.654236,325
879.77124,325
879.888306,322
880.005249,306
880.122314,321
880.239319,320
880.356323,318
880.473328,321
880.590271,304
880.707275,322
880.824341,310
880.941284,305
881.058228,319
881.175232,306
881.292236,319
881.40918,308
881.526123,310
881.643066,305
881.760071,314
881.877014,329
881.993958,308
882.11084,303
882.227783,336
882.344727,313
882.46167,325
882.578613,315
882.695618,325
882.812439,321
882.929382,315
883.046326,315
883.163208,316
883.280151,301
883.397034,320
883.513916,321
883.630798,320
883.747742,320
883.864563,311
883.981506,324
884.098389,331
884.21521,316
884.332153,319
884.448975,318
884.565796,313
884.682678,321
884.7995,319
884.916443,321
885.033264,317
885.150085,322
885.266968,320
885.383789,311
885.500671,314
885.617493,318
885.734314,335
885.851196,302
885.967896,317
886.084717,319
886.201599,323
886.318359,306
886.435181,322
886.552002,329
886.668762,321
886.785645,296
886.902344,318
887.019165,304
887.135925,319
887.252747,314
887.369446,322
887.486267,322
887.603027,310
887.719788,318
887.836548,313
887.953247,303
888.070068,302
888.186829,290
888.303528,327
888.420288,297
888.536987,319
888.653687,315
888.770447,317
888.887146,320
889.003967,307
889.120667,311
889.237305,311
889.354065,320
889.470703,314
889.587463,305
889.704163,321
889.820862,309
889.937561,327
890.054199,325
890.170837,329
890.287598,320
890.404236,316
890.520874,314
890.637634,326
890.754211,315
890.87085,312
890.987549,307
891.104187,316
891.220886,305
891.337463,321
891.454102,309
891.57074,315
891.687378,315
891.804077,328
891.920654,317
892.037231,330
892.15387,312
892.270447,326
892.387085,325
892.503723,316
892.6203,311
892.736877,330
892.853516,315
892.970032,320
893.08667,309
893.203186,298
893.319763,331
893.43634,319
893.552917,312
893.669556,320
893.786011,324
893.902588,322
894.019165,305
894.135681,331
894.252197,315
894.368835,315
894.485291,318
894.601868,327
894.718384,319
894.8349,324
894.951355,316
895.067932,320
895.184448,312
895.300964,333
895.417419,312
895.533936,302
895.650452,309
895.766907,319
895.883423,315
895.999878,309
896.116333,310
896.232849,305
896.349304,297
896.465759,323
896.582214,303
896.698669,312
896.815125,303
896.931641,330
897.048035,324
897.164551,331
897.280884,307
897.397339,301
897.513794,315
897.630249,326
897.746582,310
897.863098,305
897.979431,325
898.095886,318
898.212341,317
898.328674,325
898.445129,316
898.561462,310
898.677795,309
898.794312,320
898.910645,308
899.026978,310
899.143433,321
899.259766,318
899.37616,316
899.492493,320
899.608765,310
899.725159,316
899.841553,305
899.957947,317
900.07428,310
900.190552,318
900.306946,321
900.423157,314
900.53949,310
900.655884,320
900.772156,301
900.888489,318
901.004822,323
901.121033,324
901.237366,324
901.353699,317
901.46991,321
901.586304,311
901.702515,316
901.818787,336
901.93512,311
902.051331,329
902.167603,322
902.283875,323
902.400085,318
902.516418,330
902.632629,302
902.74884,306
902.865112,324
902.981384,310
903.097595,312
903.213867,320
903.330017,312
903.446289,328
903.5625,302
903.67865,320
903.794922,312
903.911072,314
904.027344,321
904.143494,317
904.259705,318
904.375916,330
904.492065,312
904.608215,328
904.724426,312
904.840576,312
904.956726,318
905.072876,337
905.189087,322
905.305176,327
905.421387,305
905.537537,329
905.653687,313
905.769775,324
905.885925,319
906.002014,322
906.118164,313
906.234314,318
906.350403,327
906.466492,323
906.582642,324
906.69873,322
906.814758,314
906.930908,310
907.046936,315
907.163086,325
907.279175,316
907.395264,311
907.511353,315
907.62738,330
907.743408,303
907.859497,319
907.975525,311
908.091553,320
908.207703,319
908.32373,331
908.439758,314
908.555786,320
908.671814,313
908.787842,319
908.90387,312
909.019775,328
909.135864,307
909.251892,326
909.367859,323
909.483826,325
909.599854,318
909.715881,310
909.831848,317
909.947815,309
910.063782,321
910.179749,311
910.295776,320
910.411743,316
910.527649,320
910.643616,323
910.759583,319
910.875488,326
910.991455,323
911.107361,329
911.223267,314
911.339294,324
911.4552,309
911.571106,318
911.687073,322
911.802979,310
911.918823,315
912.034729,326
912.150635,314
912.266602,320
912.382446,313
912.498352,303
912.614197,309
912.730103,325
912.846008,310
792.44574,304
792.56488,343
792.68396,376
792.80304,358
792.92218,326
793.041199,314
793.160339,312
793.279419,324
793.398499,324
793.517578,292
793.636658,318
793.755737,327
793.874817,342
793.993896,322
794.112976,336
794.232056,315
794.351074,327
794.470215,322
794.589233,316
794.708313,327
794.827393,315
794.946411,320
795.065552,327
795.18457,310
795.303589,335
795.422668,319
795.541687,326
795.660767,310
795.779846,323
795.898865,313
796.017883,314
796.136963,326
796.255981,327
796.375061,329
796.49408,333
796.613037,318
796.732117,319
796.851135,318
796.970154,327
797.089233,314
797.208191,321
797.327271,320
797.446228,327
797.565186,320
797.684265,328
797.803223,321
797.922241,329
798.04126,321
798.160278,318
798.279297,319
798.398315,325
798.517273,317
798.636292,317
798.75531,321
798.874268,335
798.993286,320
799.112244,315
799.231323,325
799.350281,330
799.469238,322
799.588257,334
799.707153,318
799.826111,326
799.945129,311
800.064087,326
800.183044,316
800.302063,326
800.421021,319
800.539978,319
800.658936,329
800.777893,311
800.896912,320
801.015747,333
801.134705,318
801.253723,324
801.37262,313
801.491638,346
801.610535,316
801.729492,324
801.84845,316
801.967407,325
802.086243,316
802.205261,313
802.324158,315
802.443115,318
802.562073,315
802.680969,331
802.799927,326
802.918762,313
803.037659,317
803.156677,317
803.275574,317
803.39447,313
803.513428,323
803.632263,330
803.751221,321
803.870117,305
803.989014,325
804.107971,321
804.226746,318
804.345642,319
804.4646,320
804.583496,323
804.702393,319
804.821228,318
804.940125,306
805.059021,305
805.177917,324
805.296814,324
805.415649,316
805.534546,329
805.653442,318
805.772278,323
805.891113,312
806.01001,325
806.128906,294
806.247742,326
806.366577,313
806.485413,326
806.604309,312
806.723145,324
806.84198,310
806.960876,327
807.079712,333
807.198486,324
807.317383,307
807.436218,312
807.554993,320
807.673889,323
807.792725,324
807.91156,315
808.030396,305
808.14917,318
808.268005,312
808.386841,331
808.505676,327
808.624451,312
808.743286,315
808.862122,325
808.980896,321
809.099731,325
809.218506,325
809.337341,316
809.456116,315
809.57489,321
809.693726,322
809.8125,324
809.931274,323
810.050049,322
810.168884,314
810.287659,320
810.406372,319
810.525269,304
810.643982,318
810.762756,334
810.881531,311
811.000305,318
811.11908,324
811.237854,311
811.356567,319
811.475403,327
811.594116,305
811.71283,321
811.831604,317
811.950378,318
812.069153,313
812.187927,319
812.30658,316
812.425415,329
812.544128,313
812.662781,330
812.781616,319
812.900269,318
813.019043,321
813.137756,314
813.256531,325
813.375244,315
813.493896,314
813.612671,324
813.731384,317
813.850037,316
813.96875,318
814.087524,327
814.206238,316
814.324951,323
814.443604,319
814.562256,305
814.68103,302
814.799683,316
814.918335,330
815.037109,315
815.155762,324
815.274475,321
815.393188,317
815.511841,323
815.630554,315
815.749146,328
815.867859,316
815.986572,333
816.105164,307
816.223877,323
816.342529,319
816.461182,316
816.579895,324
816.698486,338
816.817139,314
816.935791,313
817.054504,325
817.173096,311
817.291748,313
817.4104,320
817.529053,313
817.647644,309
817.766235,317
817.884949,324
818.00354,310
818.122192,321
818.240845,312
818.359436,319
818.478088,320
818.59668,329
818.715271,311
818.833923,305
818.952515,320
819.071106,309
819.189758,319
819.30835,324
819.426941,297
819.545532,312
819.664124,323
819.782715,314
819.901306,319
820.019897,309
820.138489,320
820.25708,313
820.375671,327
820.494202,327
820.612732,335
820.731384,315
820.849915,318
820.968506,310
821.087097,321
821.205627,318
821.324158,324
821.442749,331
821.561279,313
821.679871,314
821.798401,322
821.916931,310
822.035461,320
822.154053,307
822.272583,313
822.391174,316
822.509583,310
822.628174,302
822.746704,316
822.865234,310
822.983765,306
823.102295,326
823.220825,324
823.339294,317
823.457825,307
823.576355,320
823.694824,305
823.813354,317
823.931885,321
824.050354,322
824.168884,308
824.287354,325
824.405823,323
824.524353,326
824.642822,317
824.761353,315
824.879822,307
824.998291,306
825.116699,312
825.235291,313
825.353699,316
825.472168,327
825.590637,318
825.709106,309
825.827576,317
825.946045,317
826.064453,317
826.182983,319
826.301392,309
826.4198,346
826.53833,310
826.656738,315
826.775208,301
826.893677,305
827.012024,316
827.130493,335
827.248962,307
827.36731,311
827.485779,304
827.604248,317
827.722595,304
827.841064,325
827.959412,311
828.077942,310
828.196289,312
828.314636,327
828.433105,311
828.551514,316
828.669861,299
828.78833,328
828.906677,323
829.025085,320
829.143433,319
829.261841,321
829.38031,303
829.498657,319
829.617004,300
829.735413,316
829.85376,313
829.972107,318
830.090515,305
830.208862,319
830.327209,308
830.445557,319
830.563904,308
830.682312,317
830.800659,316
830.919006,317
831.037354,308
831.155701,308
831.274048,317
831.392395,328
831.51062,315
831.629028,323
831.747314,307
831.865662,308
831.984009,318
832.102356,318
832.220642,318
832.338928,317
832.457275,314
832.575623,323
832.693909,323
832.812134,315
832.930481,319
833.048828,321
833.167114,311
833.2854,321
833.403687,306
833.521973,315
833.640259,329
833.758545,305
833.876831,303
833.995056,314
834.113281,310
834.231628,319
834.349915,311
834.468201,320
834.586426,318
834.704651,307
834.822998,317
834.941162,311
835.059448,326
835.177673,321
835.295959,308
835.414246,320
835.53241,311
835.650635,311
835.768921,311
835.887146,316
836.005371,316
836.123596,313
836.241821,314
836.360046,320
836.478271,313
836.596497,318
836.714722,311
836.832886,323
836.95105,310
837.069336,317
837.1875,319
837.305725,328
837.423889,312
837.542053,319
837.660339,317
837.778503,320
837.896667,309
838.014832,316
838.132996,307
838.25116,309
838.369385,311
838.487488,316
838.605713,313
838.723877,307
838.84198,317
838.960205,324
839.078308,315
839.196472,309
839.314636,323
839.4328,309
839.550964,306
839.669067,311
839.787231,297
839.905396,315
840.023499,304
840.141602,318
840.259766,311
840.377869,316
840.495972,291
840.614136,308
840.732239,307
840.850342,324
840.968445,319
841.086548,308
841.204651,303
841.322754,319
841.440918,316
841.55896,313
841.677002,319
841.795166,310
841.913208,318
842.031311,316
842.149353,322
842.267456,324
842.385498,303
842.503601,314
842.621643,314
842.739746,309
842.857788,314
842.97583,311
843.093933,305
843.211975,323
843.330017,305
843.44812,315
843.566101,315
843.684204,312
843.802246,299
843.920227,333
844.038269,311
844.156311,313
844.274292,311
844.392395,312
844.510376,310
844.628357,305
844.74646,315
844.864441,309
844.982422,301
845.100403,327
845.218384,310
845.336426,319
845.454468,308
845.572449,312
845.69043,312
845.808411,321
845.926453,299
846.044373,318
846.162354,304
846.280396,329
846.398315,315
846.516296,329
846.634216,312
846.752197,318
846.870178,309
846.988098,313
847.106079,309
847.22406,328
847.34198,319
847.4599,316
847.577881,294
847.695801,312
847.813782,301
847.931641,314
848.049561,328
848.167603,322
848.285461,318
848.403381,308
848.521362,302
848.639221,316
848.75708,317
848.875,320
848.99292,308
849.110901,323
849.22876,319
849.34668,308
849.464539,306
849.582458,313
849.700317,298
849.818176,319
849.936096,305
850.053955,334
850.171875,300
850.289673,315
850.407593,307
850.525452,321
850.643311,308
850.761169,320
850.878967,317
850.996887,321
851.114746,309
851.232544,315
851.350403,325
851.468262,305
851.58606,317
851.703979,314
851.821777,303
851.939636,320
852.057434,307
852.175232,314
852.293091,304
852.410889,320
852.528687,312
852.646545,306
852.764343,322
852.88208,314
852.999939,307
853.117676,311
853.235535,315
853.353271,322
853.471069,324
853.588928,317
853.706604,323
853.824402,313
853.9422,315
854.059998,316
854.177734,319
854.295532,308
854.413269,311
854.531006,339
854.648804,316
854.766541,323
854.884277,314
855.002014,318
855.119751,311
855.237549,316
855.355225,309
855.473022,303
855.590698,317
855.708435,324
855.826172,306
855.943848,302
856.061646,317
856.179321,312
856.296997,317
856.414795,323
856.53241,311
856.650085,324
856.767822,314
856.885559,314
857.003174,315
857.120911,318
857.238586,314
857.356201,326
857.473938,313
857.591614,326
857.709351,319
857.826965,312
857.944641,307
858.062317,314
858.179993,313
858.297668,314
858.415283,312
858.532959,310
858.650574,315
858.768188,303
858.885803,321
859.003479,318
859.121094,310
859.23877,322
859.356384,306
859.473999,321
859.591675,307
859.709229,318
859.826843,306
859.944458,321
860.062012,325
860.179626,310
860.297302,308
860.414856,329
860.532471,317
860.650024,320
860.767639,311
860.885193,325
861.002808,312
861.120361,315
861.237976,307
861.35553,328
861.473022,309
861.590698,333
861.708191,307
861.825745,317
861.943298,325
862.060852,308
862.178406,316
862.295959,311
862.413513,300
862.531006,319
862.64856,313
862.766113,305
862.883667,318
863.00116,309
863.118713,316
863.236206,307
863.353699,318
863.471252,319
863.588745,312
863.706177,310
863.82373,308
863.941162,306
864.058716,305
864.176208,317
864.29364,329
864.411194,311
864.528687,315
864.646118,313
864.763611,309
864.881042,327
864.998535,310
865.116028,332
865.233459,315
865.350891,307
865.468384,316
865.585754,329
865.703308,322
865.820679,314
865.938171,314
866.055542,325
866.173035,326
866.290466,313
866.407837,315
866.52533,317
866.6427,298
866.760071,319
866.877563,316
866.994934,314
867.112305,307
867.229736,314
867.347107,304
867.464539,312
867.58197,318
867.699341,308
867.81665,324
867.934082,314
868.051453,310
868.168823,320
868.286194,317
868.403564,321
868.520935,313
868.638306,313
868.755676,309
868.872986,302
868.990295,308
869.107727,302
869.225037,315
869.342346,322
869.459717,312
869.577026,317
869.694336,303
869.811707,329
869.929016,317
870.046326,322
870.163635,317
870.280945,314
870.398254,308
870.515564,316
870.632812,300
870.750183,322
870.867432,306
870.984741,322
871.102051,307
871.219299,314
871.336609,308
871.453918,311
871.571106,315
871.688416,312
871.805664,320
871.922852,308
872.040222,302
872.157471,320
872.274719,311
872.391968,318
872.509155,317
872.626465,324
872.743652,307
872.860962,320
872.978149,326
873.095337,320
873.212646,312
873.329834,319
873.44696,322
873.564209,315
873.681396,308
873.798645,316
873.915894,318
874.03302,330
874.150208,319
874.267456,320
874.384583,305
874.501831,323
874.618958,309
874.736145,312
874.853333,324
874.970459,314
875.087646,310
875.204834,311
875.32196,305
875.439148,318
875.556274,300
875.673401,318
875.790527,320
875.907715,326
876.024841,319
876.141968,313
876.259094,308
876.376282,315
876.493347,315
876.610474,317
876.7276,330
876.844727,312
876.961853,316
877.078918,324
877.195984,319
877.313171,315
877.430237,317
877.547302,319
877.664368,301
877.781433,311
877.898499,304
878.015625,317
878.13269,314
878.249695,312
878.366821,313
878.483887,310
878.600952,316
878.717957,322
878.834961,311
878.952087,314
879.069092,310
879.186157,311
879.303162,315
879.420227,332
879.537231,305
879.654236,324
879.77124,307
879.888306,320
880.005249,310
880.122314,322
880.239319,316
880.356323,330
880.473328,326
880.590271,317
880.707275,319
880.824341,316
880.941284,315
881.058228,306
881.175232,303
881.292236,316
881.40918,313
881.526123,326
881.643066,308
881.760071,319
881.877014,306
881.993958,320
882.11084,310
882.227783,324
882.344727,323
882.46167,322
882.578613,314
882.695618,309
882.812439,312
882.929382,310
883.046326,310
883.163208,315
883.280151,316
883.397034,328
883.513916,301
883.630798,314
883.747742,325
883.864563,323
883.981506,313
884.098389,318
884.21521,317
884.332153,317
884.448975,324
884.565796,325
884.682678,322
884.7995,326
884.916443,314
885.033264,316
885.150085,312
885.266968,328
885.383789,307
885.500671,318
885.617493,306
885.734314,326
885.851196,308
885.967896,312
886.084717,321
886.201599,328
886.318359,314
886.435181,329
886.552002,316
886.668762,312
886.785645,319
886.902344,321
887.019165,312
887.135925,321
887.252747,316
887.369446,313
887.486267,322
887.603027,317
887.719788,313
887.836548,309
887.953247,316
888.070068,322
888.186829,302
888.303528,307
888.420288,308
888.536987,314
888.653687,316
888.770447,310
888.887146,322
889.003967,309
889.120667,320
889.237305,316
889.354065,307
889.470703,324
889.587463,300
889.704163,313
889.820862,315
889.937561,323
890.054199,315
890.170837,309
890.287598,319
890.404236,309
890.520874,305
890.637634,320
890.754211,315
890.87085,311
890.987549,302
891.104187,315
891.220886,321
891.337463,318
891.454102,314
891.57074,320
891.687378,314
891.804077,317
891.920654,304
892.037231,330
892.15387,308
892.270447,309
892.387085,303
892.503723,314
892.6203,330
892.736877,311
892.853516,303
892.970032,315
893.08667,306
893.203186,317
893.319763,307
893.43634,301
893.552917,312
893.669556,316
893.786011,321
893.902588,326
894.019165,302
894.135681,311
894.252197,308
894.368835,324
894.485291,312
894.601868,321
894.718384,308
894.8349,314
894.951355,311
895.067932,310
895.184448,310
895.300964,322
895.417419,310
895.533936,307
895.650452,321
895.766907,329
895.883423,317
895.999878,337
896.116333,310
896.232849,307
896.349304,309
896.465759,333
896.582214,328
896.698669,324
896.815125,304
896.931641,307
897.048035,319
897.164551,318
897.280884,318
897.397339,324
897.513794,314
897.630249,314
897.746582,310
897.863098,310
897.979431,326
898.095886,311
898.212341,323
898.328674,323
898.445129,306
898.561462,326
898.677795,313
898.794312,311
898.910645,323
899.026978,320
899.143433,307
899.259766,300
899.37616,306
899.492493,307
899.608765,314
899.725159,325
899.841553,308
899.957947,309
900.07428,316
900.190552,315
900.306946,324
900.423157,322
900.53949,308
900.655884,322
900.772156,314
900.888489,308
901.004822,308
901.121033,315
901.237366,308
901.353699,328
901.46991,330
901.586304,307
901.702515,316
901.818787,328
901.93512,329
902.051331,320
902.167603,311
902.283875,312
902.400085,311
902.516418,321
902.632629,320
902.74884,326
902.865112,312
902.981384,309
903.097595,316
903.213867,318
903.330017,326
903.446289,312
903.5625,307
903.67865,311
903.794922,317
903.911072,299
904.027344,316
904.143494,336
904.259705,301
904.375916,319
904.492065,309
904.608215,330
904.724426,306
904.840576,326
904.956726,306
905.072876,316
905.189087,316
905.305176,317
905.421387,317
905.537537,323
905.653687,315
905.769775,302
905.885925,308
906.002014,310
906.118164,314
906.234314,321
906.350403,312
906.466492,307
906.582642,314
906.69873,331
906.814758,312
906.930908,308
907.046936,307
907.163086,316
907.279175,311
907.395264,314
907.511353,304
907.62738,321
907.743408,309
907.859497,313
907.975525,310
908.091553,324
908.207703,312
908.32373,324
908.439758,293
908.555786,328
908.671814,327
908.787842,312
908.90387,307
909.019775,326
909.135864,313
909.251892,322
909.367859,314
909.483826,328
909.599854,314
909.715881,318
909.831848,316
909.947815,308
910.063782,319
910.179749,313
910.295776,323
910.411743,309
910.527649,302
910.643616,318
910.759583,313
910.875488,313
910.991455,315
911.107361,319
911.223267,310
911.339294,317
911.4552,311
911.571106,316
911.687073,309
911.802979,328
911.918823,325
912.034729,325
912.150635,326
912.266602,305
912.382446,308
912.498352,323
912.614197,312
912.730103,325
912.846008,301
792.44574,298
792.56488,352
792.68396,383
792.80304,374
792.92218,335
793.041199,303
793.160339,306
793.279419,327
793.398499,348
793.517578,318
793.636658,302
793.755737,327
793.874817,326
793.993896,341
794.112976,328
794.232056,326
794.351074,316
794.470215,312
794.589233,306
794.708313,337
794.827393,317
794.946411,335
795.065552,319
795.18457,333
795.303589,332
795.422668,318
795.541687,340
795.660767,322
795.779846,314
795.898865,327
796.017883,306
796.136963,321
796.255981,318
796.375061,321
796.49408,336
796.613037,315
796.732117,319
796.851135,307
796.970154,333
797.089233,317
797.208191,324
797.327271,330
797.446228,321
797.565186,323
797.684265,318
797.803223,319
797.922241,325
798.04126,330
798.160278,327
798.279297,313
798.398315,318
798.517273,322
798.636292,312
798.75531,322
798.874268,327
798.993286,323
799.112244,330
799.231323,326
799.350281,329
799.469238,312
799.588257,311
799.707153,317
799.826111,331
799.945129,330
800.064087,334
800.183044,321
800.302063,322
800.421021,318
800.539978,312
800.658936,327
800.777893,323
800.896912,307
801.015747,319
801.134705,320
801.253723,324
801.37262,315
801.491638,327
801.610535,322
801.729492,327
801.84845,305
801.967407,320
802.086243,311
802.205261,315
802.324158,307
802.443115,304
802.562073,321
802.680969,324
802.799927,314
802.918762,322
803.037659,320
803.156677,300
803.275574,332
803.39447,316
803.513428,335
803.632263,321
803.751221,327
803.870117,336
803.989014,316
804.107971,326
804.226746,311
804.345642,318
804.4646,314
804.583496,312
804.702393,318
804.821228,324
804.940125,308
805.059021,308
805.177917,324
805.296814,329
805.415649,317
805.534546,318
805.653442,327
805.772278,317
805.891113,316
806.01001,312
806.128906,318
806.247742,318
806.366577,312
806.485413,324
806.604309,330
806.723145,312
806.84198,318
806.960876,317
807.079712,310
807.198486,327
807.317383,312
807.436218,305
807.554993,331
807.673889,322
807.792725,320
807.91156,323
808.030396,319
808.14917,316
808.268005,321
808.386841,318
808.505676,328
808.624451,321
808.743286,322
808.862122,319
808.980896,315
809.099731,314
809.218506,330
809.337341,307
809.456116,334
809.57489,324
809.693726,311
809.8125,314
809.931274,306
810.050049,309
810.168884,329
810.287659,315
810.406372,319
810.525269,324
810.643982,315
810.762756,312
810.881531,310
811.000305,302
811.11908,316
811.237854,318
811.356567,311
811.475403,329
811.594116,314
811.71283,333
811.831604,317
811.950378,312
812.069153,318
812.187927,324
812.30658,335
812.425415,319
812.544128,332
812.662781,313
812.781616,314
812.900269,318
813.019043,317
813.137756,336
813.256531,321
813.375244,304
813.493896,316
813.612671,312
813.731384,316
813.850037,317
813.96875,321
814.087524,308
814.206238,324
814.324951,325
814.443604,305
814.562256,316
814.68103,318
814.799683,320
814.918335,322
815.037109,306
815.155762,303
815.274475,305
815.393188,324
815.511841,314
815.630554,309
815.749146,317
815.867859,334
815.986572,314
816.105164,309
816.223877,308
816.342529,314
816.461182,322
816.579895,323
816.698486,316
816.817139,326
816.935791,311
817.054504,312
817.173096,320
817.291748,318
817.4104,333
817.529053,303
817.647644,320
817.766235,314
817.884949,320
818.00354,338
818.122192,316
818.240845,321
818.359436,314
818.478088,304
818.59668,318
818.715271,311
818.833923,307
818.952515,324
819.071106,323
819.189758,325
819.30835,319
819.426941,315
819.545532,318
819.664124,316
819.782715,318
819.901306,308
820.019897,299
820.138489,334
820.25708,308
820.375671,312
820.494202,305
820.612732,317
820.731384,315
820.849915,313
820.968506,315
821.087097,318
821.205627,312
821.324158,318
821.442749,304
821.561279,314
821.679871,319
821.798401,314
821.916931,313
822.035461,334
822.154053,309
822.272583,311
822.391174,315
822.509583,330
822.628174,309
822.746704,316
822.865234,310
822.983765,303
823.102295,320
823.220825,318
823.339294,315
823.457825,313
823.576355,319
823.694824,311
823.813354,322
823.931885,308
824.050354,326
824.168884,309
824.287354,325
824.405823,323
824.524353,321
824.642822,318
824.761353,301
824.879822,306
824.998291,323
825.116699,317
825.235291,315
825.353699,321
825.472168,312
825.590637,308
825.709106,325
825.827576,302
825.946045,318
826.064453,315
826.182983,315
826.301392,320
826.4198,318
826.53833,316
826.656738,316
826.775208,312
826.893677,316
827.012024,315
827.130493,306
827.248962,325
827.36731,313
827.485779,315
827.604248,329
827.722595,315
827.841064,316
827.959412,310
828.077942,329
828.196289,311
828.314636,308
828.433105,308
828.551514,312
828.669861,309
828.78833,323
828.906677,312
829.025085,312
829.143433,314
829.261841,308
829.38031,320
829.498657,315
829.617004,305
829.735413,317
829.85376,311
829.972107,316
830.090515,326
830.208862,323
830.327209,294
830.445557,312
830.563904,307
830.682312,306
830.800659,331
830.919006,330
831.037354,302
831.155701,312
831.274048,322
831.392395,315
831.51062,314
831.629028,302
831.747314,319
831.865662,315
831.984009,320
832.102356,313
832.220642,314
832.338928,317
832.457275,325
832.575623,305
832.693909,323
832.812134,308
832.930481,315
833.048828,304
833.167114,323
833.2854,322
833.403687,318
833.521973,311
833.640259,305
833.758545,330
833.876831,313
833.995056,317
834.113281,313
834.231628,316
834.349915,307
834.468201,300
834.586426,315
834.704651,311
834.822998,305
834.941162,321
835.059448,319
835.177673,319
835.295959,307
835.414246,316
835.53241,324
835.650635,319
835.768921,317
835.887146,324
836.005371,320
836.123596,307
836.241821,320
836.360046,318
836.478271,314
836.596497,331
836.714722,310
836.832886,316
836.95105,308
837.069336,311
837.1875,323
837.305725,312
837.423889,308
837.542053,300
837.660339,317
837.778503,328
837.896667,335
838.014832,310
838.132996,302
838.25116,328
838.369385,308
838.487488,325
838.605713,324
838.723877,319
838.84198,310
838.960205,314
839.078308,308
839.196472,317
839.314636,323
839.4328,323
839.550964,328
839.669067,325
839.787231,305
839.905396,310
840.023499,317
840.141602,308
840.259766,324
840.377869,317
840.495972,314
840.614136,317
840.732239,304
840.850342,329
840.968445,308
841.086548,322
841.204651,321
841.322754,315
841.440918,312
841.55896,306
841.677002,304
841.795166,316
841.913208,313
842.031311,298
842.149353,309
842.267456,299
842.385498,328
842.503601,311
842.621643,309
842.739746,314
842.857788,312
842.97583,304
843.093933,316
843.211975,308
843.330017,316
843.44812,315
843.566101,321
843.684204,304
843.802246,324
843.920227,302
844.038269,311
844.156311,313
844.274292,326
844.392395,297
844.510376,310
844.628357,324
844.74646,315
844.864441,312
844.982422,320
845.100403,322
845.218384,317
845.336426,321
845.454468,327
845.572449,320
845.69043,323
845.808411,313
845.926453,318
846.044373,311
846.162354,321
846.280396,327
846.398315,317
846.516296,317
846.634216,305
846.752197,322
846.870178,310
846.988098,325
847.106079,316
847.22406,298
847.34198,321
847.4599,318
847.577881,318
847.695801,317
847.813782,316
847.931641,319
848.049561,325
848.167603,313
848.285461,307
848.403381,319
848.521362,338
848.639221,321
848.75708,316
848.875,319
848.99292,320
849.110901,308
849.22876,320
849.34668,319
849.464539,309
849.582458,312
849.700317,314
849.818176,304
849.936096,317
850.053955,305
850.171875,316
850.289673,314
850.407593,321
850.525452,320
850.643311,332
850.761169,304
850.878967,310
850.996887,312
851.114746,316
851.232544,305
851.350403,300
851.468262,309
851.58606,331
851.703979,318
851.821777,316
851.939636,313
852.057434,312
852.175232,311
852.293091,308
852.410889,310
852.528687,307
852.646545,318
852.764343,311
852.88208,306
852.999939,320
853.117676,317
853.235535,322
853.353271,319
853.471069,306
853.588928,323
853.706604,311
853.824402,320
853.9422,316
854.059998,326
854.177734,316
854.295532,312
854.413269,314
854.531006,309
854.648804,319
854.766541,309
854.884277,316
855.002014,300
855.119751,315
855.237549,309
855.355225,316
855.473022,312
855.590698,326
855.708435,315
855.826172,312
855.943848,309
856.061646,320
856.179321,314
856.296997,308
856.414795,309
856.53241,313
856.650085,309
856.767822,313
856.885559,314
857.003174,316
857.120911,329
857.238586,323
857.356201,315
857.473938,319
857.591614,320
857.709351,316
857.826965,311
857.944641,311
858.062317,318
858.179993,315
858.297668,318
858.415283,330
858.532959,323
858.650574,322
858.768188,313
858.885803,305
859.003479,325
859.121094,322
859.23877,306
859.356384,310
859.473999,313
859.591675,328
859.709229,318
859.826843,328
859.944458,302
860.062012,304
860.179626,324
860.297302,320
860.414856,313
860.532471,319
860.650024,321
860.767639,307
860.885193,314
861.002808,301
861.120361,313
861.237976,324
861.35553,320
861.473022,319
861.590698,320
861.708191,310
861.825745,324
861.943298,324
862.060852,307
862.178406,328
862.295959,310
862.413513,323
862.531006,296
862.64856,310
862.766113,310
862.883667,320
863.00116,321
863.118713,320
863.236206,318
863.353699,318
863.471252,305
863.588745,321
863.706177,319
863.82373,322
863.941162,312
864.058716,313
864.176208,327
864.29364,310
864.411194,312
864.528687,322
864.646118,309
864.763611,327
864.881042,314
864.998535,310
865.116028,311
865.233459,310
865.350891,312
865.468384,314
865.585754,312
865.703308,315
865.820679,326
865.938171,326
866.055542,320
866.173035,328
866.290466,310
866.407837,305
866.52533,319
866.6427,331
866.760071,304
866.877563,315
866.994934,310
867.112305,330
867.229736,313
867.347107,321
867.464539,320
867.58197,309
867.699341,307
867.81665,313
867.934082,317
868.051453,324
868.168823,313
868.286194,314
868.403564,316
868.520935,317
868.638306,301
868.755676,319
868.872986,316
868.990295,315
869.107727,313
869.225037,317
869.342346,307
869.459717,324
869.577026,310
869.694336,331
869.811707,320
869.929016,317
870.046326,321
870.163635,320
870.280945,309
870.398254,318
870.515564,309
870.632812,308
870.750183,309
870.867432,324
870.984741,324
871.102051,312
871.219299,309
871.336609,314
871.453918,310
871.571106,321
871.688416,319
871.805664,319
871.922852,309
872.040222,322
872.157471,305
872.274719,306
872.391968,319
872.509155,304
872.626465,307
872.743652,325
872.860962,309
872.978149,324
873.095337,314
873.212646,327
873.329834,310
873.44696,319
873.564209,319
873.681396,319
873.798645,313
873.915894,308
874.03302,303
874.150208,304
874.267456,302
874.384583,319
874.501831,331
874.618958,312
874.736145,307
874.853333,310
874.970459,320
875.087646,318
875.204834,318
875.32196,314
875.439148,315
875.556274,308
875.673401,316
875.790527,311
875.907715,318
876.024841,322
876.141968,310
876.259094,318
876.376282,309
876.493347,316
876.610474,306
876.7276,324
876.844727,317
876.961853,308
877.078918,326
877.195984,310
877.313171,305
877.430237,317
877.547302,306
877.664368,328
877.781433,315
877.898499,322
878.015625,317
878.13269,317
878.249695,325
878.366821,310
878.483887,317
878.600952,310
878.717957,323
878.834961,310
878.952087,326
879.069092,331
879.186157,302
879.303162,313
879.420227,309
879.537231,316
879.654236,317
879.77124,307
879.888306,323
880.005249,306
880.122314,306
880.239319,315
880.356323,321
880.473328,321
880.590271,314
880.707275,310
880.824341,315
880.941284,314
881.058228,298
881.175232,307
881.292236,320
881.40918,308
881.526123,306
881.643066,317
881.760071,317
881.877014,316
881.993958,316
882.11084,313
882.227783,309
882.344727,316
882.46167,308
882.578613,307
882.695618,322
882.812439,310
882.929382,310
883.046326,309
883.163208,319
883.280151,310
883.397034,319
883.513916,327
883.630798,310
883.747742,321
883.864563,320
883.981506,308
884.098389,310
884.21521,313
884.332153,328
884.448975,319
884.565796,305
884.682678,313
884.7995,311
884.916443,318
885.033264,309
885.150085,316
885.266968,301
885.383789,310
885.500671,308
885.617493,327
885.734314,318
885.851196,310
885.967896,322
886.084717,325
886.201599,309
886.318359,317
886.435181,308
886.552002,313
886.668762,327
886.785645,326
886.902344,315
887.019165,309
887.135925,304
887.252747,312
887.369446,318
887.486267,316
887.603027,318
887.719788,303
887.836548,319
887.953247,324
888.070068,311
888.186829,323
888.303528,308
888.420288,322
888.536987,328
888.653687,327
888.770447,313
888.887146,323
889.003967,311
889.120667,323
889.237305,307
889.354065,315
889.470703,319
889.587463,307
889.704163,320
889.820862,322
889.937561,309
890.054199,316
890.170837,301
890.287598,318
890.404236,308
890.520874,315
890.637634,307
890.754211,320
890.87085,305
890.987549,303
891.104187,315
891.220886,333
891.337463,311
891.454102,306
891.57074,312
891.687378,309
891.804077,301
891.920654,315
892.037231,316
892.15387,313
892.270447,320
892.387085,322
892.503723,316
892.6203,320
892.736877,311
892.853516,319
892.970032,314
893.08667,316
893.203186,312
893.319763,317
893.43634,313
893.552917,315
893.669556,344
893.786011,323
893.902588,306
894.019165,323
894.135681,324
894.252197,308
894.368835,319
894.485291,315
894.601868,305
894.718384,322
894.8349,332
894.951355,317
895.067932,307
895.184448,323
895.300964,309
895.417419,318
895.533936,312
895.650452,329
895.766907,322
895.883423,307
895.999878,322
896.116333,311
896.232849,324
896.349304,314
896.465759,316
896.582214,323
896.698669,316
896.815125,319
896.931641,302
897.048035,311
897.164551,322
897.280884,327
897.397339,307
897.513794,323
897.630249,323
897.746582,298
897.863098,309
897.979431,308
898.095886,321
898.212341,310
898.328674,317
898.445129,316
898.561462,311
898.677795,315
898.794312,322
898.910645,313
899.026978,307
899.143433,316
899.259766,309
899.37616,314
899.492493,327
899.608765,309
899.725159,312
899.841553,320
899.957947,292
900.07428,318
900.190552,308
900.306946,316
900.423157,313
900.53949,311
900.655884,316
900.772156,324
900.888489,316
901.004822,306
901.121033,303
901.237366,315
901.353699,323
901.46991,312
901.586304,312
901.702515,327
901.818787,311
901.93512,319
902.051331,317
902.167603,312
902.283875,308
902.400085,321
902.516418,318
902.632629,307
902.74884,312
902.865112,325
902.981384,310
903.097595,308
903.213867,310
903.330017,316
903.446289,314
903.5625,318
903.67865,306
903.794922,311
903.911072,315
904.027344,312
904.143494,306
904.259705,311
904.375916,320
904.492065,310
904.608215,325
904.724426,317
904.840576,337
904.956726,321
905.072876,321
905.189087,328
905.305176,311
905.421387,319
905.537537,322
905.653687,315
905.769775,306
905.885925,312
906.002014,318
906.118164,317
906.234314,326
906.350403,314
906.466492,316
906.582642,321
906.69873,313
906.814758,324
906.930908,319
907.046936,329
907.163086,322
907.279175,313
907.395264,320
907.511353,319
907.62738,332
907.743408,316
907.859497,306
907.975525,329
908.091553,310
908.207703,326
908.32373,317
908.439758,317
908.555786,306
908.671814,318
908.787842,317
908.90387,322
909.019775,321
909.135864,312
909.251892,311
909.367859,316
909.483826,311
909.599854,313
909.715881,315
909.831848,324
909.947815,314
910.063782,318
910.179749,310
910.295776,313
910.411743,314
910.527649,321
910.643616,315
910.759583,307
910.875488,313
910.991455,320
911.107361,322
911.223267,309
911.339294,313
911.4552,311
911.571106,310
911.687073,321
911.802979,325
911.918823,311
912.034729,317
912.150635,310
912.266602,321
912.382446,326
912.498352,317
912.614197,315
912.730103,306
912.846008,314
