792.44574,313
792.56488,338
792.68396,380
792.80304,360
792.92218,339
793.041199,319
793.160339,313
793.279419,315
793.398499,319
793.517578,311
793.636658,310
793.755737,314
793.874817,325
793.993896,348
794.112976,321
794.232056,327
794.351074,312
794.470215,313
794.589233,316
794.708313,318
794.827393,323
794.946411,325
795.065552,324
795.18457,339
795.303589,320
795.422668,324
795.541687,338
795.660767,320
795.779846,315
795.898865,317
796.017883,310
796.136963,323
796.255981,326
796.375061,321
796.49408,310
796.613037,325
796.732117,317
796.851135,327
796.970154,333
797.089233,321
797.208191,320
797.327271,335
797.446228,323
797.565186,314
797.684265,323
797.803223,317
797.922241,331
798.04126,313
798.160278,319
798.279297,310
798.398315,329
798.517273,328
798.636292,318
798.75531,308
798.874268,329
798.993286,328
799.112244,321
799.231323,315
799.350281,320
799.469238,322
799.588257,321
799.707153,319
799.826111,313
799.945129,315
800.064087,318
800.183044,314
800.302063,324
800.421021,323
800.539978,300
800.658936,328
800.777893,316
800.896912,334
801.015747,319
801.134705,314
801.253723,320
801.37262,315
801.491638,312
801.610535,317
801.729492,306
801.84845,316
801.967407,316
802.086243,321
802.205261,307
802.324158,324
802.443115,311
802.562073,323
802.680969,315
802.799927,330
802.918762,326
803.037659,322
803.156677,316
803.275574,311
803.39447,308
803.513428,311
803.632263,318
803.751221,324
803.870117,323
803.989014,324
804.107971,322
804.226746,332
804.345642,322
804.4646,332
804.583496,304
804.702393,318
804.821228,314
804.940125,315
805.059021,319
805.177917,326
805.296814,331
805.415649,323
805.534546,326
805.653442,302
805.772278,320
805.891113,312
806.01001,322
806.128906,308
806.247742,320
806.366577,309
806.485413,317
806.604309,332
806.723145,315
806.84198,313
806.960876,323
807.079712,317
807.198486,327
807.317383,306
807.436218,311
807.554993,323
807.673889,303
807.792725,315
807.91156,322
808.030396,313
808.14917,318
808.268005,323
808.386841,325
808.505676,307
808.624451,310
808.743286,308
808.862122,314
808.980896,313
809.099731,335
809.218506,319
809.337341,318
809.456116,316
809.57489,320
809.693726,323
809.8125,316
809.931274,297
810.050049,335
810.168884,318
810.287659,307
810.406372,319
810.525269,319
810.643982,307
810.762756,310
810.881531,314
811.000305,315
811.11908,317
811.237854,324
811.356567,325
811.475403,321
811.594116,327
811.71283,315
811.831604,318
811.950378,334
812.069153,318
812.187927,331
812.30658,313
812.425415,320
812.544128,309
812.662781,321
812.781616,320
812.900269,326
813.019043,330
813.137756,316
813.256531,327
813.375244,335
813.493896,313
813.612671,303
813.731384,317
813.850037,328
813.96875,311
814.087524,309
814.206238,319
814.324951,312
814.443604,315
814.562256,330
814.68103,316
814.799683,310
814.918335,321
815.037109,329
815.155762,316
815.274475,319
815.393188,321
815.511841,321
815.630554,316
815.749146,311
815.867859,303
815.986572,325
816.105164,301
816.223877,316
816.342529,322
816.461182,311
816.579895,329
816.698486,320
816.817139,313
816.935791,321
817.054504,329
817.173096,312
817.291748,327
817.4104,326
817.529053,315
817.647644,315
817.766235,321
817.884949,311
818.00354,314
818.122192,316
818.240845,322
818.359436,314
818.478088,332
818.59668,319
818.715271,329
818.833923,320
818.952515,318
819.071106,313
819.189758,325
819.30835,323
819.426941,317
819.545532,325
819.664124,309
819.782715,312
819.901306,317
820.019897,314
820.138489,316
820.25708,325
820.375671,306
820.494202,336
820.612732,309
820.731384,314
820.849915,325
820.968506,329
821.087097,310
821.205627,311
821.324158,307
821.442749,292
821.561279,332
821.679871,325
821.798401,312
821.916931,308
822.035461,311
822.154053,310
822.272583,326
822.391174,318
822.509583,325
822.628174,306
822.746704,316
822.865234,317
822.983765,315
823.102295,300
823.220825,318
823.339294,311
823.457825,310
823.576355,328
823.694824,311
823.813354,313
823.931885,319
824.050354,316
824.168884,319
824.287354,308
824.405823,314
824.524353,327
824.642822,321
824.761353,309
824.879822,326
824.998291,314
825.116699,324
825.235291,323
825.353699,313
825.472168,310
825.590637,313
825.709106,307
825.827576,322
825.946045,311
826.064453,317
826.182983,315
826.301392,318
826.4198,320
826.53833,308
826.656738,312
826.775208,316
826.893677,310
827.012024,319
827.130493,303
827.248962,324
827.36731,311
827.485779,318
827.604248,309
827.722595,318
827.841064,317
827.959412,299
828.077942,318
828.196289,324
828.314636,312
828.433105,316
828.551514,309
828.669861,323
828.78833,317
828.906677,313
829.025085,325
829.143433,313
829.261841,318
829.38031,322
829.498657,305
829.617004,316
829.735413,316
829.85376,316
829.972107,321
830.090515,320
830.208862,322
830.327209,319
830.445557,311
830.563904,314
830.682312,328
830.800659,316
830.919006,313
831.037354,308
831.155701,304
831.274048,314
831.392395,316
831.51062,330
831.629028,304
831.747314,323
831.865662,305
831.984009,317
832.102356,308
832.220642,314
832.338928,311
832.457275,312
832.575623,320
832.693909,325
832.812134,316
832.930481,314
833.048828,322
833.167114,318
833.2854,312
833.403687,310
833.521973,316
833.640259,306
833.758545,317
833.876831,323
833.995056,322
834.113281,320
834.231628,305
834.349915,314
834.468201,324
834.586426,316
834.704651,319
834.822998,316
834.941162,314
835.059448,311
835.177673,313
835.295959,325
835.414246,324
835.53241,312
835.650635,324
835.768921,308
835.887146,308
836.005371,320
836.123596,307
836.241821,317
836.360046,303
836.478271,309
836.596497,311
836.714722,313
836.832886,308
836.95105,310
837.069336,316
837.1875,313
837.305725,311
837.423889,306
837.542053,309
837.660339,332
837.778503,306
837.896667,318
838.014832,304
838.132996,329
838.25116,312
838.369385,325
838.487488,322
838.605713,317
838.723877,319
838.84198,330
838.960205,312
839.078308,334
839.196472,318
839.314636,326
839.4328,307
839.550964,320
839.669067,310
839.787231,311
839.905396,305
840.023499,323
840.141602,315
840.259766,312
840.377869,311
840.495972,314
840.614136,315
840.732239,320
840.850342,316
840.968445,311
841.086548,306
841.204651,317
841.322754,313
841.440918,326
841.55896,318
841.677002,329
841.795166,324
841.913208,315
842.031311,317
842.149353,320
842.267456,311
842.385498,303
842.503601,315
842.621643,316
842.739746,320
842.857788,324
842.97583,312
843.093933,328
843.211975,318
843.330017,308
843.44812,309
843.566101,315
843.684204,314
843.802246,319
843.920227,321
844.038269,309
844.156311,317
844.274292,304
844.392395,314
844.510376,301
844.628357,304
844.74646,310
844.864441,302
844.982422,321
845.100403,317
845.218384,335
845.336426,305
845.454468,317
845.572449,323
845.69043,315
845.808411,318
845.926453,308
846.044373,325
846.162354,322
846.280396,303
846.398315,323
846.516296,312
846.634216,315
846.752197,310
846.870178,316
846.988098,314
847.106079,313
847.22406,319
847.34198,324
847.4599,300
847.577881,324
847.695801,311
847.813782,319
847.931641,315
848.049561,318
848.167603,322
848.285461,311
848.403381,300
848.521362,320
848.639221,311
848.75708,322
848.875,318
848.99292,325
849.110901,331
849.22876,311
849.34668,319
849.464539,305
849.582458,319
849.700317,318
849.818176,309
849.936096,321
850.053955,314
850.171875,319
850.289673,309
850.407593,310
850.525452,317
850.643311,313
850.761169,321
850.878967,314
850.996887,309
851.114746,311
851.232544,304
851.350403,316
851.468262,316
851.58606,319
851.703979,324
851.821777,320
851.939636,315
852.057434,320
852.175232,324
852.293091,316
852.410889,313
852.528687,323
852.646545,316
852.764343,315
852.88208,318
852.999939,323
853.117676,307
853.235535,318
853.353271,315
853.471069,317
853.588928,317
853.706604,309
853.824402,310
853.9422,322
854.059998,298
854.177734,310
854.295532,302
854.413269,324
854.531006,318
854.648804,314
854.766541,315
854.884277,309
855.002014,314
855.119751,314
855.237549,312
855.355225,304
855.473022,300
855.590698,321
855.708435,313
855.826172,315
855.943848,310
856.061646,311
856.179321,330
856.296997,302
856.414795,325
856.53241,319
856.650085,307
856.767822,298
856.885559,314
857.003174,306
857.120911,323
857.238586,321
857.356201,312
857.473938,316
857.591614,319
857.709351,320
857.826965,311
857.944641,300
858.062317,309
858.179993,327
858.297668,312
858.415283,320
858.532959,316
858.650574,319
858.768188,317
858.885803,321
859.003479,302
859.121094,309
859.23877,309
859.356384,313
859.473999,294
859.591675,328
859.709229,310
859.826843,328
859.944458,316
860.062012,312
860.179626,318
860.297302,316
860.414856,319
860.532471,311
860.650024,319
860.767639,326
860.885193,318
861.002808,306
861.120361,305
861.237976,311
861.35553,312
861.473022,309
861.590698,320
861.708191,318
861.825745,324
861.943298,330
862.060852,319
862.178406,297
862.295959,311
862.413513,317
862.531006,313
862.64856,309
862.766113,323
862.883667,318
863.00116,300
863.118713,318
863.236206,303
863.353699,311
863.471252,302
863.588745,326
863.706177,315
863.82373,320
863.941162,313
864.058716,319
864.176208,321
864.29364,325
864.411194,321
864.528687,308
864.646118,311
864.763611,319
864.881042,299
864.998535,308
865.116028,316
865.233459,325
865.350891,324
865.468384,322
865.585754,312
865.703308,317
865.820679,318
865.938171,316
866.055542,310
866.173035,316
866.290466,316
866.407837,319
866.52533,313
866.6427,305
866.760071,313
866.877563,318
866.994934,325
867.112305,322
867.229736,311
867.347107,325
867.464539,314
867.58197,313
867.699341,315
867.81665,322
867.934082,313
868.051453,319
868.168823,307
868.286194,321
868.403564,306
868.520935,322
868.638306,307
868.755676,318
868.872986,311
868.990295,310
869.107727,320
869.225037,324
869.342346,323
869.459717,325
869.577026,312
869.694336,327
869.811707,314
869.929016,318
870.046326,313
870.163635,305
870.280945,300
870.398254,312
870.515564,306
870.632812,334
870.750183,327
870.867432,322
870.984741,299
871.102051,328
871.219299,315
871.336609,324
871.453918,319
871.571106,318
871.688416,314
871.805664,309
871.922852,312
872.040222,312
872.157471,323
872.274719,341
872.391968,318
872.509155,319
872.626465,325
872.743652,313
872.860962,307
872.978149,319
873.095337,324
873.212646,320
873.329834,309
873.44696,323
873.564209,322
873.681396,312
873.798645,307
873.915894,306
874.03302,318
874.150208,325
874.267456,301
874.384583,315
874.501831,318
874.618958,332
874.736145,308
874.853333,298
874.970459,314
875.087646,318
875.204834,309
875.32196,313
875.439148,315
875.556274,316
875.673401,310
875.790527,321
875.907715,321
876.024841,316
876.141968,312
876.259094,314
876.376282,311
876.493347,309
876.610474,309
876.7276,306
876.844727,302
876.961853,319
877.078918,302
877.195984,316
877.313171,315
877.430237,309
877.547302,311
877.664368,324
877.781433,321
877.898499,312
878.015625,320
878.13269,325
878.249695,326
878.366821,323
878.483887,320
878.600952,319
878.717957,299
878.834961,317
878.952087,314
879.069092,313
879.186157,316
879.303162,316
879.420227,317
879.537231,309
879.654236,318
879.77124,321
879.888306,314
880.005249,310
880.122314,308
880.239319,325
880.356323,315
880.473328,333
880.590271,316
880.707275,311
880.824341,324
880.941284,317
881.058228,321
881.175232,321
881.292236,318
881.40918,306
881.526123,306
881.643066,320
881.760071,323
881.877014,303
881.993958,308
882.11084,319
882.227783,326
882.344727,324
882.46167,314
882.578613,327
882.695618,303
882.812439,326
882.929382,308
883.046326,321
883.163208,310
883.280151,308
883.397034,309
883.513916,318
883.630798,325
883.747742,311
883.864563,304
883.981506,312
884.098389,316
884.21521,323
884.332153,310
884.448975,317
884.565796,327
884.682678,308
884.7995,321
884.916443,307
885.033264,311
885.150085,313
885.266968,307
885.383789,305
885.500671,323
885.617493,301
885.734314,316
885.851196,323
885.967896,323
886.084717,318
886.201599,330
886.318359,321
886.435181,298
886.552002,324
886.668762,315
886.785645,323
886.902344,302
887.019165,329
887.135925,305
887.252747,314
887.369446,303
887.486267,304
887.603027,310
887.719788,317
887.836548,305
887.953247,312
888.070068,322
888.186829,312
888.303528,316
888.420288,317
888.536987,317
888.653687,319
888.770447,321
888.887146,319
889.003967,325
889.120667,310
889.237305,324
889.354065,311
889.470703,321
889.587463,322
889.704163,316
889.820862,313
889.937561,318
890.054199,322
890.170837,318
890.287598,311
890.404236,323
890.520874,307
890.637634,305
890.754211,331
890.87085,313
890.987549,326
891.104187,316
891.220886,339
891.337463,304
891.454102,330
891.57074,310
891.687378,323
891.804077,316
891.920654,312
892.037231,300
892.15387,331
892.270447,315
892.387085,319
892.503723,311
892.6203,299
892.736877,325
892.853516,319
892.970032,319
893.08667,314
893.203186,317
893.319763,314
893.43634,321
893.552917,314
893.669556,311
893.786011,323
893.902588,317
894.019165,330
894.135681,305
894.252197,334
894.368835,302
894.485291,317
894.601868,306
894.718384,316
894.8349,313
894.951355,320
895.067932,320
895.184448,317
895.300964,312
895.417419,314
895.533936,302
895.650452,317
895.766907,320
895.883423,322
895.999878,311
896.116333,317
896.232849,317
896.349304,319
896.465759,308
896.582214,310
896.698669,319
896.815125,324
896.931641,308
897.048035,316
897.164551,318
897.280884,330
897.397339,316
897.513794,323
897.630249,305
897.746582,312
897.863098,314
897.979431,322
898.095886,321
898.212341,318
898.328674,310
898.445129,311
898.561462,324
898.677795,308
898.794312,323
898.910645,321
899.026978,311
899.143433,295
899.259766,306
899.37616,334
899.492493,316
899.608765,301
899.725159,321
899.841553,325
899.957947,309
900.07428,324
900.190552,320
900.306946,328
900.423157,322
900.53949,321
900.655884,315
900.772156,322
900.888489,328
901.004822,314
901.121033,316
901.237366,324
901.353699,308
901.46991,314
901.586304,313
901.702515,318
901.818787,311
901.93512,309
902.051331,309
902.167603,325
902.283875,326
902.400085,312
902.516418,308
902.632629,323
902.74884,302
902.865112,311
902.981384,312
903.097595,305
903.213867,315
903.330017,314
903.446289,306
903.5625,319
903.67865,307
903.794922,309
903.911072,310
904.027344,315
904.143494,300
904.259705,319
904.375916,316
904.492065,326
904.608215,308
904.724426,319
904.840576,311
904.956726,316
905.072876,305
905.189087,311
905.305176,311
905.421387,318
905.537537,314
905.653687,305
905.769775,311
905.885925,314
906.002014,301
906.118164,312
906.234314,314
906.350403,304
906.466492,310
906.582642,311
906.69873,324
906.814758,315
906.930908,305
907.046936,324
907.163086,311
907.279175,309
907.395264,316
907.511353,311
907.62738,309
907.743408,326
907.859497,325
907.975525,309
908.091553,308
908.207703,310
908.32373,312
908.439758,332
908.555786,316
908.671814,302
908.787842,315
908.90387,314
909.019775,325
909.135864,316
909.251892,316
909.367859,327
909.483826,325
909.599854,326
909.715881,316
909.831848,326
909.947815,316
910.063782,313
910.179749,316
910.295776,324
910.411743,312
910.527649,322
910.643616,310
910.759583,316
910.875488,321
910.991455,319
911.107361,316
911.223267,317
911.339294,330
911.4552,333
911.571106,322
911.687073,333
911.802979,314
911.918823,322
912.034729,317
912.150635,313
912.266602,328
912.382446,316
912.498352,311
912.614197,310
912.730103,302
912.846008,321
792.44574,313
792.56488,338
792.68396,384
792.80304,372
792.92218,322
793.041199,303
793.160339,311
793.279419,325
793.398499,328
793.517578,300
793.636658,308
793.755737,311
793.874817,348
793.993896,339
794.112976,328
794.232056,317
794.351074,324
794.470215,327
794.589233,325
794.708313,318
794.827393,326
794.946411,319
795.065552,336
795.18457,334
795.303589,324
795.422668,317
795.541687,328
795.660767,337
795.779846,332
795.898865,324
796.017883,320
796.136963,326
796.255981,318
796.375061,330
796.49408,321
796.613037,322
796.732117,329
796.851135,329
796.970154,328
797.089233,323
797.208191,326
797.327271,305
797.446228,333
797.565186,332
797.684265,314
797.803223,321
797.922241,330
798.04126,317
798.160278,324
798.279297,318
798.398315,322
798.517273,304
798.636292,314
798.75531,324
798.874268,326
798.993286,320
799.112244,319
799.231323,321
799.350281,330
799.469238,322
799.588257,319
799.707153,331
799.826111,328
799.945129,317
800.064087,326
800.183044,313
800.302063,324
800.421021,315
800.539978,311
800.658936,318
800.777893,311
800.896912,317
801.015747,330
801.134705,323
801.253723,322
801.37262,317
801.491638,327
801.610535,318
801.729492,328
801.84845,324
801.967407,317
802.086243,319
802.205261,320
802.324158,310
802.443115,330
802.562073,318
802.680969,306
802.799927,309
802.918762,313
803.037659,318
803.156677,326
803.275574,313
803.39447,319
803.513428,308
803.632263,320
803.751221,317
803.870117,305
803.989014,326
804.107971,312
804.226746,311
804.345642,319
804.4646,317
804.583496,321
804.702393,306
804.821228,313
804.940125,315
805.059021,328
805.177917,315
805.296814,319
805.415649,340
805.534546,318
805.653442,320
805.772278,339
805.891113,331
806.01001,310
806.128906,314
806.247742,314
806.366577,321
806.485413,311
806.604309,312
806.723145,312
806.84198,320
806.960876,315
807.079712,312
807.198486,327
807.317383,332
807.436218,333
807.554993,326
807.673889,313
807.792725,316
807.91156,318
808.030396,312
808.14917,327
808.268005,322
808.386841,310
808.505676,317
808.624451,323
808.743286,326
808.862122,335
808.980896,328
809.099731,328
809.218506,323
809.337341,328
809.456116,314
809.57489,321
809.693726,311
809.8125,334
809.931274,318
810.050049,309
810.168884,330
810.287659,326
810.406372,326
810.525269,326
810.643982,328
810.762756,318
810.881531,316
811.000305,301
811.11908,320
811.237854,326
811.356567,319
811.475403,322
811.594116,314
811.71283,317
811.831604,323
811.950378,318
812.069153,329
812.187927,325
812.30658,312
812.425415,327
812.544128,321
812.662781,326
812.781616,326
812.900269,318
813.019043,323
813.137756,326
813.256531,326
813.375244,318
813.493896,311
813.612671,312
813.731384,307
813.850037,330
813.96875,315
814.087524,324
814.206238,317
814.324951,334
814.443604,318
814.562256,321
814.68103,319
814.799683,325
814.918335,318
815.037109,330
815.155762,320
815.274475,332
815.393188,320
815.511841,316
815.630554,322
815.749146,329
815.867859,321
815.986572,320
816.105164,321
816.223877,317
816.342529,322
816.461182,326
816.579895,312
816.698486,313
816.817139,323
816.935791,322
817.054504,317
817.173096,322
817.291748,324
817.4104,315
817.529053,326
817.647644,332
817.766235,327
817.884949,331
818.00354,317
818.122192,317
818.240845,312
818.359436,313
818.478088,320
818.59668,325
818.715271,319
818.833923,318
818.952515,319
819.071106,314
819.189758,330
819.30835,333
819.426941,316
819.545532,314
819.664124,321
819.782715,326
819.901306,317
820.019897,316
820.138489,304
820.25708,326
820.375671,331
820.494202,309
820.612732,309
820.731384,327
820.849915,316
820.968506,317
821.087097,311
821.205627,309
821.324158,319
821.442749,324
821.561279,307
821.679871,311
821.798401,324
821.916931,311
822.035461,308
822.154053,313
822.272583,315
822.391174,314
822.509583,320
822.628174,313
822.746704,325
822.865234,315
822.983765,322
823.102295,321
823.220825,318
823.339294,322
823.457825,302
823.576355,315
823.694824,318
823.813354,312
823.931885,308
824.050354,319
824.168884,322
824.287354,328
824.405823,302
824.524353,325
824.642822,302
824.761353,322
824.879822,314
824.998291,311
825.116699,326
825.235291,310
825.353699,315
825.472168,324
825.590637,296
825.709106,314
825.827576,318
825.946045,304
826.064453,315
826.182983,293
826.301392,318
826.4198,331
826.53833,315
826.656738,322
826.775208,316
826.893677,320
827.012024,314
827.130493,316
827.248962,307
827.36731,322
827.485779,306
827.604248,337
827.722595,315
827.841064,318
827.959412,314
828.077942,302
828.196289,310
828.314636,329
828.433105,307
828.551514,308
828.669861,310
828.78833,315
828.906677,323
829.025085,315
829.143433,324
829.261841,308
829.38031,318
829.498657,320
829.617004,306
829.735413,318
829.85376,313
829.972107,314
830.090515,320
830.208862,315
830.327209,300
830.445557,318
830.563904,322
830.682312,324
830.800659,324
830.919006,316
831.037354,310
831.155701,322
831.274048,312
831.392395,321
831.51062,319
831.629028,332
831.747314,305
831.865662,317
831.984009,334
832.102356,318
832.220642,297
832.338928,308
832.457275,319
832.575623,324
832.693909,328
832.812134,328
832.930481,305
833.048828,327
833.167114,322
833.2854,319
833.403687,318
833.521973,317
833.640259,309
833.758545,316
833.876831,314
833.995056,340
834.113281,311
834.231628,318
834.349915,313
834.468201,311
834.586426,315
834.704651,321
834.822998,307
834.941162,322
835.059448,319
835.177673,316
835.295959,317
835.414246,317
835.53241,314
835.650635,310
835.768921,303
835.887146,316
836.005371,312
836.123596,322
836.241821,314
836.360046,321
836.478271,316
836.596497,314
836.714722,307
836.832886,329
836.95105,317
837.069336,326
837.1875,314
837.305725,316
837.423889,318
837.542053,319
837.660339,322
837.778503,317
837.896667,317
838.014832,318
838.132996,322
838.25116,308
838.369385,321
838.487488,322
838.605713,314
838.723877,306
838.84198,317
838.960205,319
839.078308,299
839.196472,315
839.314636,312
839.4328,304
839.550964,319
839.669067,315
839.787231,304
839.905396,316
840.023499,323
840.141602,313
840.259766,328
840.377869,322
840.495972,315
840.614136,321
840.732239,310
840.850342,317
840.968445,316
841.086548,315
841.204651,308
841.322754,327
841.440918,306
841.55896,312
841.677002,317
841.795166,322
841.913208,318
842.031311,319
842.149353,320
842.267456,323
842.385498,311
842.503601,322
842.621643,315
842.739746,299
842.857788,329
842.97583,312
843.093933,325
843.211975,311
843.330017,289
843.44812,310
843.566101,320
843.684204,313
843.802246,333
843.920227,323
844.038269,315
844.156311,322
844.274292,329
844.392395,307
844.510376,306
844.628357,299
844.74646,325
844.864441,315
844.982422,318
845.100403,323
845.218384,322
845.336426,320
845.454468,312
845.572449,321
845.69043,314
845.808411,323
845.926453,312
846.044373,314
846.162354,314
846.280396,321
846.398315,327
846.516296,309
846.634216,299
846.752197,315
846.870178,314
846.988098,326
847.106079,302
847.22406,309
847.34198,302
847.4599,332
847.577881,312
847.695801,324
847.813782,315
847.931641,306
848.049561,301
848.167603,327
848.285461,306
848.403381,328
848.521362,310
848.639221,318
848.75708,319
848.875,311
848.99292,317
849.110901,307
849.22876,311
849.34668,332
849.464539,310
849.582458,312
849.700317,306
849.818176,313
849.936096,312
850.053955,323
850.171875,316
850.289673,313
850.407593,313
850.525452,316
850.643311,320
850.761169,320
850.878967,320
850.996887,311
851.114746,317
851.232544,326
851.350403,328
851.468262,307
851.58606,306
851.703979,320
851.821777,315
851.939636,317
852.057434,309
852.175232,314
852.293091,308
852.410889,316
852.528687,322
852.646545,314
852.764343,311
852.88208,320
852.999939,312
853.117676,311
853.235535,325
853.353271,319
853.471069,307
853.588928,317
853.706604,306
853.824402,317
853.9422,320
854.059998,330
854.177734,311
854.295532,320
854.413269,322
854.531006,311
854.648804,317
854.766541,307
854.884277,317
855.002014,314
855.119751,312
855.237549,320
855.355225,304
855.473022,333
855.590698,298
855.708435,318
855.826172,316
855.943848,309
856.061646,324
856.179321,322
856.296997,306
856.414795,325
856.53241,322
856.650085,327
856.767822,325
856.885559,332
857.003174,316
857.120911,306
857.238586,319
857.356201,327
857.473938,306
857.591614,330
857.709351,324
857.826965,318
857.944641,303
858.062317,315
858.179993,300
858.297668,319
858.415283,321
858.532959,331
858.650574,321
858.768188,300
858.885803,316
859.003479,306
859.121094,314
859.23877,319
859.356384,313
859.473999,304
859.591675,324
859.709229,324
859.826843,312
859.944458,319
860.062012,304
860.179626,307
860.297302,306
860.414856,313
860.532471,310
860.650024,322
860.767639,324
860.885193,321
861.002808,326
861.120361,321
861.237976,303
861.35553,327
861.473022,310
861.590698,316
861.708191,318
861.825745,331
861.943298,310
862.060852,322
862.178406,326
862.295959,316
862.413513,316
862.531006,329
862.64856,307
862.766113,313
862.883667,314
863.00116,317
863.118713,313
863.236206,321
863.353699,310
863.471252,316
863.588745,322
863.706177,319
863.82373,320
863.941162,309
864.058716,316
864.176208,312
864.29364,325
864.411194,324
864.528687,311
864.646118,312
864.763611,317
864.881042,318
864.998535,327
865.116028,317
865.233459,304
865.350891,320
865.468384,303
865.585754,317
865.703308,314
865.820679,327
865.938171,320
866.055542,317
866.173035,304
866.290466,314
866.407837,301
866.52533,315
866.6427,303
866.760071,326
866.877563,315
866.994934,314
867.112305,307
867.229736,319
867.347107,310
867.464539,331
867.58197,317
867.699341,322
867.81665,321
867.934082,324
868.051453,316
868.168823,313
868.286194,321
868.403564,321
868.520935,302
868.638306,317
868.755676,316
868.872986,309
868.990295,315
869.107727,324
869.225037,312
869.342346,322
869.459717,319
869.577026,314
869.694336,298
869.811707,309
869.929016,309
870.046326,319
870.163635,315
870.280945,323
870.398254,317
870.515564,299
870.632812,310
870.750183,322
870.867432,319
870.984741,308
871.102051,302
871.219299,314
871.336609,317
871.453918,319
871.571106,314
871.688416,321
871.805664,305
871.922852,321
872.040222,309
872.157471,319
872.274719,316
872.391968,321
872.509155,311
872.626465,313
872.743652,305
872.860962,319
872.978149,311
873.095337,322
873.212646,309
873.329834,315
873.44696,307
873.564209,321
873.681396,314
873.798645,315
873.915894,324
874.03302,323
874.150208,313
874.267456,323
874.384583,316
874.501831,315
874.618958,311
874.736145,315
874.853333,309
874.970459,320
875.087646,304
875.204834,327
875.32196,303
875.439148,326
875.556274,313
875.673401,325
875.790527,313
875.907715,327
876.024841,320
876.141968,312
876.259094,328
876.376282,315
876.493347,305
876.610474,327
876.7276,308
876.844727,314
876.961853,314
877.078918,313
877.195984,315
877.313171,322
877.430237,328
877.547302,318
877.664368,306
877.781433,328
877.898499,317
878.015625,326
878.13269,332
878.249695,318
878.366821,323
878.483887,323
878.600952,304
878.717957,318
878.834961,296
878.952087,330
879.069092,318
879.186157,314
879.303162,318
879.420227,319
879.537231,322
879.654236,333
879.77124,323
879.888306,311
880.005249,304
880.122314,320
880.239319,313
880.356323,319
880.473328,318
880.590271,321
880.707275,316
880.824341,314
880.941284,311
881.058228,314
881.175232,314
881.292236,324
881.40918,307
881.526123,321
881.643066,321
881.760071,301
881.877014,322
881.993958,325
882.11084,310
882.227783,318
882.344727,309
882.46167,316
882.578613,317
882.695618,322
882.812439,317
882.929382,301
883.046326,312
883.163208,310
883.280151,303
883.397034,326
883.513916,307
883.630798,316
883.747742,339
883.864563,319
883.981506,313
884.098389,333
884.21521,319
884.332153,318
884.448975,311
884.565796,324
884.682678,319
884.7995,327
884.916443,318
885.033264,327
885.150085,307
885.266968,315
885.383789,320
885.500671,321
885.617493,316
885.734314,319
885.851196,314
885.967896,306
886.084717,322
886.201599,314
886.318359,320
886.435181,322
886.552002,318
886.668762,328
886.785645,309
886.902344,320
887.019165,311
887.135925,319
887.252747,298
887.369446,319
887.486267,317
887.603027,331
887.719788,317
887.836548,318
887.953247,308
888.070068,320
888.186829,319
888.303528,312
888.420288,315
888.536987,322
888.653687,322
888.770447,335
888.887146,305
889.003967,327
889.120667,300
889.237305,315
889.354065,317
889.470703,322
889.587463,329
889.704163,310
889.820862,317
889.937561,316
890.054199,307
890.170837,319
890.287598,315
890.404236,315
890.520874,300
890.637634,317
890.754211,321
890.87085,322
890.987549,334
891.104187,315
891.220886,334
891.337463,319
891.454102,324
891.57074,325
891.687378,307
891.804077,328
891.920654,310
892.037231,323
892.15387,325
892.270447,321
892.387085,314
892.503723,321
892.6203,315
892.736877,304
892.853516,326
892.970032,320
893.08667,313
893.203186,327
893.319763,310
893.43634,315
893.552917,322
893.669556,316
893.786011,334
893.902588,326
894.019165,323
894.135681,330
894.252197,321
894.368835,314
894.485291,308
894.601868,317
894.718384,326
894.8349,335
894.951355,310
895.067932,322
895.184448,318
895.300964,319
895.417419,308
895.533936,310
895.650452,311
895.766907,311
895.883423,307
895.999878,322
896.116333,323
896.232849,314
896.349304,320
896.465759,321
896.582214,314
896.698669,326
896.815125,312
896.931641,339
897.048035,321
897.164551,319
897.280884,307
897.397339,304
897.513794,314
897.630249,312
897.746582,310
897.863098,325
897.979431,311
898.095886,326
898.212341,307
898.328674,323
898.445129,323
898.561462,318
898.677795,308
898.794312,319
898.910645,308
899.026978,318
899.143433,309
899.259766,327
899.37616,320
899.492493,327
899.608765,320
899.725159,338
899.841553,303
899.957947,326
900.07428,316
900.190552,311
900.306946,325
900.423157,315
900.53949,328
900.655884,315
900.772156,313
900.888489,338
901.004822,315
901.121033,320
901.237366,313
901.353699,314
901.46991,312
901.586304,328
901.702515,326
901.818787,324
901.93512,312
902.051331,328
902.167603,311
902.283875,316
902.400085,304
902.516418,307
902.632629,315
902.74884,315
902.865112,330
902.981384,332
903.097595,324
903.213867,321
903.330017,306
903.446289,322
903.5625,315
903.67865,320
903.794922,332
903.911072,317
904.027344,317
904.143494,338
904.259705,317
904.375916,310
904.492065,327
904.608215,308
904.724426,313
904.840576,327
904.956726,321
905.072876,311
905.189087,328
905.305176,339
905.421387,316
905.537537,324
905.653687,322
905.769775,324
905.885925,307
906.002014,316
906.118164,322
906.234314,319
906.350403,325
906.466492,325
906.582642,318
906.69873,317
906.814758,315
906.930908,329
907.046936,309
907.163086,336
907.279175,317
907.395264,312
907.511353,308
907.62738,320
907.743408,309
907.859497,322
907.975525,307
908.091553,334
908.207703,319
908.32373,314
908.439758,330
908.555786,327
908.671814,316
908.787842,320
908.90387,313
909.019775,325
909.135864,331
909.251892,333
909.367859,331
909.483826,319
909.599854,323
909.715881,317
909.831848,319
909.947815,323
910.063782,313
910.179749,321
910.295776,322
910.411743,321
910.527649,317
910.643616,314
910.759583,320
910.875488,321
910.991455,325
911.107361,323
911.223267,326
911.339294,312
911.4552,321
911.571106,322
911.687073,309
911.802979,318
911.918823,314
912.034729,311
912.150635,312
912.266602,324
912.382446,304
912.498352,321
912.614197,319
912.730103,315
912.846008,320
792.44574,314
792.56488,336
792.68396,384
792.80304,357
792.92218,335
793.041199,311
793.160339,319
793.279419,325
793.398499,326
793.517578,309
793.636658,302
793.755737,322
793.874817,327
793.993896,338
794.112976,318
794.232056,319
794.351074,327
794.470215,317
794.589233,326
794.708313,302
794.827393,314
794.946411,323
795.065552,323
795.18457,328
795.303589,328
795.422668,333
795.541687,322
795.660767,316
795.779846,324
795.898865,317
796.017883,332
796.136963,311
796.255981,323
796.375061,330
796.49408,327
796.613037,316
796.732117,330
796.851135,329
796.970154,335
797.089233,314
797.208191,337
797.327271,320
797.446228,324
797.565186,305
797.684265,318
797.803223,318
797.922241,319
798.04126,305
798.160278,318
798.279297,318
798.398315,319
798.517273,324
798.636292,310
798.75531,316
798.874268,328
798.993286,329
799.112244,320
799.231323,319
799.350281,322
799.469238,317
799.588257,329
799.707153,324
799.826111,338
799.945129,301
800.064087,336
800.183044,324
800.302063,320
800.421021,315
800.539978,319
800.658936,328
800.777893,328
800.896912,302
801.015747,321
801.134705,323
801.253723,327
801.37262,328
801.491638,309
801.610535,306
801.729492,316
801.84845,309
801.967407,330
802.086243,310
802.205261,328
802.324158,311
802.443115,327
802.562073,327
802.680969,316
802.799927,320
802.918762,326
803.037659,319
803.156677,316
803.275574,310
803.39447,314
803.513428,311
803.632263,316
803.751221,308
803.870117,322
803.989014,320
804.107971,337
804.226746,321
804.345642,316
804.4646,323
804.583496,314
804.702393,318
804.821228,329
804.940125,321
805.059021,329
805.177917,327
805.296814,333
805.415649,318
805.534546,310
805.653442,304
805.772278,333
805.891113,304
806.01001,321
806.128906,300
806.247742,310
806.366577,322
806.485413,315
806.604309,320
806.723145,315
806.84198,304
806.960876,316
807.079712,322
807.198486,323
807.317383,316
807.436218,326
807.554993,310
807.673889,320
807.792725,316
807.91156,318
808.030396,321
808.14917,322
808.268005,327
808.386841,326
808.505676,313
808.624451,327
808.743286,318
808.862122,311
808.980896,315
809.099731,333
809.218506,319
809.337341,323
809.456116,316
809.57489,327
809.693726,315
809.8125,315
809.931274,329
810.050049,310
810.168884,324
810.287659,308
810.406372,313
810.525269,334
810.643982,315
810.762756,333
810.881531,314
811.000305,314
811.11908,320
811.237854,323
811.356567,332
811.475403,330
811.594116,310
811.71283,326
811.831604,316
811.950378,325
812.069153,326
812.187927,323
812.30658,317
812.425415,318
812.544128,322
812.662781,306
812.781616,311
812.900269,320
813.019043,326
813.137756,334
813.256531,307
813.375244,333
813.493896,332
813.612671,311
813.731384,310
813.850037,316
813.96875,320
814.087524,309
814.206238,312
814.324951,319
814.443604,305
814.562256,314
814.68103,318
814.799683,324
814.918335,322
815.037109,339
815.155762,321
815.274475,321
815.393188,317
815.511841,315
815.630554,312
815.749146,310
815.867859,314
815.986572,316
816.105164,319
816.223877,309
816.342529,314
816.461182,320
816.579895,315
816.698486,309
816.817139,309
816.935791,329
817.054504,316
817.173096,322
817.291748,311
817.4104,325
817.529053,322
817.647644,330
817.766235,312
817.884949,316
818.00354,312
818.122192,313
818.240845,319
818.359436,321
818.478088,302
818.59668,333
818.715271,305
818.833923,318
818.952515,311
819.071106,328
819.189758,314
819.30835,299
819.426941,329
819.545532,308
819.664124,324
819.782715,325
819.901306,313
820.019897,329
820.138489,310
820.25708,322
820.375671,318
820.494202,317
820.612732,318
820.731384,309
820.849915,307
820.968506,320
821.087097,314
821.205627,323
821.324158,312
821.442749,318
821.561279,306
821.679871,316
821.798401,321
821.916931,318
822.035461,297
822.154053,320
822.272583,309
822.391174,325
822.509583,318
822.628174,326
822.746704,302
822.865234,328
822.983765,304
823.102295,311
823.220825,315
823.339294,321
823.457825,303
823.576355,319
823.694824,322
823.813354,319
823.931885,312
824.050354,317
824.168884,309
824.287354,318
824.405823,300
824.524353,331
824.642822,316
824.761353,313
824.879822,315
824.998291,318
825.116699,306
825.235291,303
825.353699,311
825.472168,311
825.590637,314
825.709106,318
825.827576,300
825.946045,319
826.064453,321
826.182983,327
826.301392,328
826.4198,306
826.53833,318
826.656738,315
826.775208,322
826.893677,313
827.012024,315
827.130493,322
827.248962,304
827.36731,328
827.485779,309
827.604248,314
827.722595,314
827.841064,327
827.959412,324
828.077942,310
828.196289,316
828.314636,315
828.433105,324
828.551514,328
828.669861,316
828.78833,315
828.906677,314
829.025085,315
829.143433,333
829.261841,315
829.38031,306
829.498657,314
829.617004,316
829.735413,324
829.85376,312
829.972107,319
830.090515,309
830.208862,331
830.327209,304
830.445557,318
830.563904,309
830.682312,316
830.800659,302
830.919006,325
831.037354,312
831.155701,311
831.274048,319
831.392395,320
831.51062,314
831.629028,330
831.747314,312
831.865662,319
831.984009,318
832.102356,319
832.220642,307
832.338928,313
832.457275,315
832.575623,317
832.693909,318
832.812134,307
832.930481,318
833.048828,329
833.167114,314
833.2854,322
833.403687,314
833.521973,333
833.640259,306
833.758545,332
833.876831,299
833.995056,312
834.113281,317
834.231628,319
834.349915,307
834.468201,330
834.586426,301
834.704651,327
834.822998,313
834.941162,308
835.059448,309
835.177673,321
835.295959,309
835.414246,318
835.53241,321
835.650635,315
835.768921,309
835.887146,317
836.005371,319
836.123596,312
836.241821,323
836.360046,315
836.478271,311
836.596497,305
836.714722,308
836.832886,311
836.95105,314
837.069336,307
837.1875,310
837.305725,317
837.423889,300
837.542053,316
837.660339,307
837.778503,326
837.896667,321
838.014832,328
838.132996,314
838.25116,306
838.369385,305
838.487488,317
838.605713,306
838.723877,310
838.84198,302
838.960205,320
839.078308,311
839.196472,326
839.314636,308
839.4328,313
839.550964,305
839.669067,311
839.787231,313
839.905396,314
840.023499,312
840.141602,329
840.259766,304
840.377869,320
840.495972,308
840.614136,319
840.732239,306
840.850342,314
840.968445,315
841.086548,314
841.204651,315
841.322754,319
841.440918,311
841.55896,322
841.677002,315
841.795166,299
841.913208,332
842.031311,309
842.149353,315
842.267456,318
842.385498,313
842.503601,316
842.621643,311
842.739746,328
842.857788,311
842.97583,317
843.093933,311
843.211975,311
843.330017,315
843.44812,315
843.566101,303
843.684204,320
843.802246,311
843.920227,323
844.038269,313
844.156311,326
844.274292,311
844.392395,318
844.510376,316
844.628357,319
844.74646,306
844.864441,308
844.982422,317
845.100403,326
845.218384,314
845.336426,308
845.454468,305
845.572449,318
845.69043,313
845.808411,306
845.926453,305
846.044373,301
846.162354,292
846.280396,324
846.398315,315
846.516296,309
846.634216,320
846.752197,319
846.870178,319
846.988098,309
847.106079,324
847.22406,308
847.34198,308
847.4599,325
847.577881,312
847.695801,318
847.813782,293
847.931641,318
848.049561,319
848.167603,330
848.285461,303
848.403381,333
848.521362,310
848.639221,318
848.75708,296
848.875,320
848.99292,315
849.110901,317
849.22876,320
849.34668,310
849.464539,321
849.582458,312
849.700317,316
849.818176,314
849.936096,306
850.053955,312
850.171875,302
850.289673,313
850.407593,313
850.525452,326
850.643311,314
850.761169,315
850.878967,307
850.996887,314
851.114746,315
851.232544,328
851.350403,308
851.468262,331
851.58606,327
851.703979,307
851.821777,305
851.939636,325
852.057434,311
852.175232,315
852.293091,310
852.410889,316
852.528687,304
852.646545,304
852.764343,312
852.88208,328
852.999939,317
853.117676,307
853.235535,326
853.353271,325
853.471069,311
853.588928,311
853.706604,314
853.824402,314
853.9422,309
854.059998,320
854.177734,314
854.295532,317
854.413269,301
854.531006,313
854.648804,316
854.766541,322
854.884277,322
855.002014,322
855.119751,318
855.237549,314
855.355225,313
855.473022,316
855.590698,315
855.708435,320
855.826172,308
855.943848,317
856.061646,317
856.179321,307
856.296997,302
856.414795,312
856.53241,310
856.650085,314
856.767822,308
856.885559,325
857.003174,302
857.120911,312
857.238586,323
857.356201,325
857.473938,316
857.591614,330
857.709351,302
857.826965,311
857.944641,313
858.062317,311
858.179993,316
858.297668,316
858.415283,313
858.532959,311
858.650574,320
858.768188,309
858.885803,302
859.003479,325
859.121094,323
859.23877,316
859.356384,310
859.473999,312
859.591675,306
859.709229,326
859.826843,308
859.944458,314
860.062012,309
860.179626,327
860.297302,310
860.414856,321
860.532471,314
860.650024,320
860.767639,320
860.885193,314
861.002808,318
861.120361,324
861.237976,300
861.35553,316
861.473022,314
861.590698,316
861.708191,313
861.825745,307
861.943298,315
862.060852,315
862.178406,322
862.295959,327
862.413513,328
862.531006,306
862.64856,305
862.766113,307
862.883667,319
863.00116,323
863.118713,310
863.236206,313
863.353699,317
863.471252,323
863.588745,318
863.706177,318
863.82373,309
863.941162,332
864.058716,320
864.176208,314
864.29364,321
864.411194,320
864.528687,309
864.646118,319
864.763611,314
864.881042,332
864.998535,315
865.116028,320
865.233459,317
865.350891,330
865.468384,326
865.585754,313
865.703308,316
865.820679,321
865.938171,311
866.055542,315
866.173035,325
866.290466,326
866.407837,315
866.52533,313
866.6427,307
866.760071,321
866.877563,318
866.994934,313
867.112305,314
867.229736,306
867.347107,314
867.464539,323
867.58197,305
867.699341,308
867.81665,321
867.934082,318
868.051453,307
868.168823,326
868.286194,309
868.403564,321
868.520935,315
868.638306,326
868.755676,313
868.872986,317
868.990295,309
869.107727,309
869.225037,320
869.342346,320
869.459717,316
869.577026,314
869.694336,314
869.811707,328
869.929016,319
870.046326,325
870.163635,313
870.280945,317
870.398254,318
870.515564,326
870.632812,309
870.750183,323
870.867432,315
870.984741,325
871.102051,310
871.219299,308
871.336609,321
871.453918,318
871.571106,319
871.688416,314
871.805664,304
871.922852,318
872.040222,303
872.157471,318
872.274719,318
872.391968,320
872.509155,298
872.626465,311
872.743652,328
872.860962,311
872.978149,310
873.095337,307
873.212646,300
873.329834,310
873.44696,314
873.564209,313
873.681396,319
873.798645,328
873.915894,318
874.03302,311
874.150208,320
874.267456,328
874.384583,311
874.501831,324
874.618958,312
874.736145,316
874.853333,303
874.970459,316
875.087646,325
875.204834,325
875.32196,323
875.439148,309
875.556274,312
875.673401,309
875.790527,307
875.907715,311
876.024841,330
876.141968,314
876.259094,313
876.376282,325
876.493347,323
876.610474,310
876.7276,311
876.844727,307
876.961853,313
877.078918,322
877.195984,301
877.313171,307
877.430237,308
877.547302,324
877.664368,309
877.781433,319
877.898499,316
878.015625,315
878.13269,300
878.249695,322
878.366821,308
878.483887,313
878.600952,321
878.717957,316
878.834961,326
878.952087,326
879.069092,320
879.186157,324
879.303162,311
879.420227,308
879.537231,315
879.654236,317
879.77124,305
879.888306,318
880.005249,314
880.122314,313
880.239319,299
880.356323,328
880.473328,321
880.590271,319
880.707275,321
880.824341,318
880.941284,319
881.058228,307
881.175232,313
881.292236,304
881.40918,323
881.526123,322
881.643066,309
881.760071,302
881.877014,314
881.993958,329
882.11084,311
882.227783,323
882.344727,319
882.46167,311
882.578613,306
882.695618,321
882.812439,321
882.929382,323
883.046326,320
883.163208,323
883.280151,312
883.397034,301
883.513916,318
883.630798,324
883.747742,308
883.864563,322
883.981506,319
884.098389,312
884.21521,309
884.332153,319
884.448975,317
884.565796,310
884.682678,309
884.7995,315
884.916443,306
885.033264,319
885.150085,320
885.266968,320
885.383789,315
885.500671,305
885.617493,321
885.734314,316
885.851196,297
885.967896,325
886.084717,312
886.201599,313
886.318359,319
886.435181,305
886.552002,326
886.668762,322
886.785645,324
886.902344,324
887.019165,323
887.135925,324
887.252747,315
887.369446,323
887.486267,309
887.603027,321
887.719788,313
887.836548,315
887.953247,315
888.070068,316
888.186829,311
888.303528,332
888.420288,311
888.536987,316
888.653687,318
888.770447,325
888.887146,313
889.003967,313
889.120667,303
889.237305,331
889.354065,314
889.470703,322
889.587463,313
889.704163,326
889.820862,306
889.937561,322
890.054199,319
890.170837,324
890.287598,318
890.404236,314
890.520874,313
890.637634,331
890.754211,303
890.87085,310
890.987549,320
891.104187,325
891.220886,315
891.337463,303
891.454102,313
891.57074,316
891.687378,307
891.804077,311
891.920654,304
892.037231,322
892.15387,317
892.270447,302
892.387085,319
892.503723,314
892.6203,313
892.736877,339
892.853516,315
892.970032,331
893.08667,313
893.203186,330
893.319763,308
893.43634,309
893.552917,307
893.669556,321
893.786011,314
893.902588,322
894.019165,309
894.135681,321
894.252197,304
894.368835,338
894.485291,315
894.601868,324
894.718384,319
894.8349,308
894.951355,314
895.067932,319
895.184448,319
895.300964,311
895.417419,314
895.533936,321
895.650452,316
895.766907,315
895.883423,301
895.999878,333
896.116333,310
896.232849,324
896.349304,310
896.465759,316
896.582214,309
896.698669,314
896.815125,315
896.931641,315
897.048035,327
897.164551,316
897.280884,315
897.397339,331
897.513794,309
897.630249,333
897.746582,299
897.863098,326
897.979431,310
898.095886,321
898.212341,313
898.328674,324
898.445129,316
898.561462,324
898.677795,318
898.794312,326
898.910645,298
899.026978,337
899.143433,315
899.259766,312
899.37616,307
899.492493,315
899.608765,310
899.725159,319
899.841553,310
899.957947,321
900.07428,310
900.190552,309
900.306946,324
900.423157,312
900.53949,320
900.655884,315
900.772156,321
900.888489,309
901.004822,308
901.121033,322
901.237366,300
901.353699,319
901.46991,313
901.586304,313
901.702515,315
901.818787,329
901.93512,317
902.051331,318
902.167603,318
902.283875,330
902.400085,320
902.516418,326
902.632629,311
902.74884,329
902.865112,311
902.981384,312
903.097595,328
903.213867,326
903.330017,309
903.446289,310
903.5625,312
903.67865,325
903.794922,322
903.911072,312
904.027344,303
904.143494,313
904.259705,316
904.375916,323
904.492065,299
904.608215,327
904.724426,304
904.840576,320
904.956726,309
905.072876,326
905.189087,304
905.305176,306
905.421387,309
905.537537,307
905.653687,302
905.769775,323
905.885925,303
906.002014,326
906.118164,318
906.234314,326
906.350403,304
906.466492,331
906.582642,306
906.69873,309
906.814758,314
906.930908,321
907.046936,304
907.163086,318
907.279175,316
907.395264,322
907.511353,318
907.62738,310
907.743408,321
907.859497,315
907.975525,317
908.091553,327
908.207703,306
908.32373,329
908.439758,310
908.555786,308
908.671814,308
908.787842,320
908.90387,322
909.019775,327
909.135864,319
909.251892,323
909.367859,312
909.483826,327
909.599854,312
909.715881,322
909.831848,312
909.947815,324
910.063782,317
910.179749,312
910.295776,307
910.411743,321
910.527649,306
910.643616,326
910.759583,312
910.875488,316
910.991455,317
911.107361,319
911.223267,307
911.339294,320
911.4552,313
911.571106,319
911.687073,312
911.802979,324
911.918823,310
912.034729,313
912.150635,315
912.266602,311
912.382446,324
912.498352,312
912.614197,299
912.730103,318
912.846008,307
