792.44574,302
792.56488,335
792.68396,395
792.80304,377
792.92218,328
793.041199,290
793.160339,309
793.279419,334
793.398499,320
793.517578,305
793.636658,312
793.755737,323
793.874817,350
793.993896,327
794.112976,321
794.232056,318
794.351074,316
794.470215,322
794.589233,317
794.708313,312
794.827393,323
794.946411,317
795.065552,330
795.18457,324
795.303589,312
795.422668,324
795.541687,324
795.660767,329
795.779846,322
795.898865,334
796.017883,316
796.136963,323
796.255981,321
796.375061,331
796.49408,320
796.613037,326
796.732117,322
796.851135,322
796.970154,317
797.089233,320
797.208191,312
797.327271,320
797.446228,309
797.565186,323
797.684265,315
797.803223,327
797.922241,324
798.04126,320
798.160278,327
798.279297,317
798.398315,315
798.517273,322
798.636292,325
798.75531,317
798.874268,307
798.993286,312
799.112244,320
799.231323,314
799.350281,336
799.469238,314
799.588257,319
799.707153,314
799.826111,325
799.945129,318
800.064087,323
800.183044,322
800.302063,325
800.421021,323
800.539978,319
800.658936,316
800.777893,324
800.896912,316
801.015747,312
801.134705,322
801.253723,307
801.37262,310
801.491638,316
801.610535,325
801.729492,310
801.84845,319
801.967407,311
802.086243,321
802.205261,321
802.324158,308
802.443115,319
802.562073,319
802.680969,319
802.799927,325
802.918762,323
803.037659,315
803.156677,323
803.275574,306
803.39447,332
803.513428,303
803.632263,328
803.751221,320
803.870117,327
803.989014,312
804.107971,327
804.226746,308
804.345642,323
804.4646,312
804.583496,319
804.702393,311
804.821228,320
804.940125,314
805.059021,319
805.177917,319
805.296814,331
805.415649,322
805.534546,317
805.653442,316
805.772278,318
805.891113,315
806.01001,323
806.128906,313
806.247742,318
806.366577,307
806.485413,321
806.604309,312
806.723145,310
806.84198,307
806.960876,324
807.079712,314
807.198486,327
807.317383,312
807.436218,324
807.554993,319
807.673889,311
807.792725,315
807.91156,325
808.030396,322
808.14917,326
808.268005,302
808.386841,323
808.505676,321
808.624451,314
808.743286,315
808.862122,318
808.980896,307
809.099731,317
809.218506,324
809.337341,318
809.456116,327
809.57489,316
809.693726,305
809.8125,320
809.931274,325
810.050049,306
810.168884,323
810.287659,321
810.406372,320
810.525269,323
810.643982,318
810.762756,326
810.881531,322
811.000305,328
811.11908,325
811.237854,316
811.356567,312
811.475403,313
811.594116,336
811.71283,327
811.831604,322
811.950378,324
812.069153,320
812.187927,325
812.30658,315
812.425415,328
812.544128,318
812.662781,314
812.781616,310
812.900269,317
813.019043,305
813.137756,331
813.256531,317
813.375244,339
813.493896,315
813.612671,295
813.731384,325
813.850037,317
813.96875,306
814.087524,316
814.206238,307
814.324951,321
814.443604,316
814.562256,314
814.68103,324
814.799683,317
814.918335,319
815.037109,321
815.155762,315
815.274475,320
815.393188,311
815.511841,316
815.630554,323
815.749146,317
815.867859,315
815.986572,311
816.105164,310
816.223877,311
816.342529,319
816.461182,323
816.579895,306
816.698486,324
816.817139,298
816.935791,323
817.054504,321
817.173096,301
817.291748,320
817.4104,316
817.529053,320
817.647644,316
817.766235,317
817.884949,318
818.00354,315
818.122192,331
818.240845,326
818.359436,312
818.478088,321
818.59668,311
818.715271,314
818.833923,325
818.952515,322
819.071106,316
819.189758,324
819.30835,323
819.426941,317
819.545532,322
819.664124,317
819.782715,308
819.901306,311
820.019897,320
820.138489,312
820.25708,330
820.375671,307
820.494202,327
820.612732,326
820.731384,319
820.849915,314
820.968506,323
821.087097,312
821.205627,311
821.324158,316
821.442749,318
821.561279,314
821.679871,317
821.798401,312
821.916931,314
822.035461,316
822.154053,318
822.272583,310
822.391174,315
822.509583,316
822.628174,302
822.746704,323
822.865234,324
822.983765,311
823.102295,326
823.220825,307
823.339294,326
823.457825,324
823.576355,304
823.694824,317
823.813354,320
823.931885,303
824.050354,321
824.168884,323
824.287354,318
824.405823,309
824.524353,315
824.642822,315
824.761353,309
824.879822,317
824.998291,292
825.116699,314
825.235291,315
825.353699,306
825.472168,301
825.590637,308
825.709106,306
825.827576,318
825.946045,321
826.064453,298
826.182983,325
826.301392,305
826.4198,320
826.53833,311
826.656738,304
826.775208,309
826.893677,311
827.012024,315
827.130493,323
827.248962,314
827.36731,316
827.485779,300
827.604248,313
827.722595,316
827.841064,318
827.959412,323
828.077942,304
828.196289,318
828.314636,313
828.433105,309
828.551514,319
828.669861,314
828.78833,327
828.906677,308
829.025085,307
829.143433,319
829.261841,321
829.38031,313
829.498657,315
829.617004,308
829.735413,312
829.85376,314
829.972107,330
830.090515,303
830.208862,304
830.327209,309
830.445557,323
830.563904,314
830.682312,327
830.800659,321
830.919006,317
831.037354,317
831.155701,311
831.274048,325
831.392395,307
831.51062,305
831.629028,319
831.747314,315
831.865662,320
831.984009,312
832.102356,320
832.220642,314
832.338928,307
832.457275,316
832.575623,300
832.693909,316
832.812134,318
832.930481,302
833.048828,301
833.167114,319
833.2854,310
833.403687,309
833.521973,327
833.640259,312
833.758545,317
833.876831,312
833.995056,312
834.113281,307
834.231628,312
834.349915,312
834.468201,308
834.586426,317
834.704651,316
834.822998,306
834.941162,316
835.059448,306
835.177673,331
835.295959,308
835.414246,305
835.53241,316
835.650635,305
835.768921,303
835.887146,330
836.005371,326
836.123596,314
836.241821,310
836.360046,321
836.478271,304
836.596497,322
836.714722,316
836.832886,320
836.95105,302
837.069336,320
837.1875,302
837.305725,324
837.423889,308
837.542053,333
837.660339,307
837.778503,324
837.896667,307
838.014832,307
838.132996,324
838.25116,311
838.369385,308
838.487488,312
838.605713,302
838.723877,307
838.84198,316
838.960205,307
839.078308,301
839.196472,314
839.314636,307
839.4328,313
839.550964,310
839.669067,316
839.787231,318
839.905396,316
840.023499,307
840.141602,316
840.259766,310
840.377869,313
840.495972,309
840.614136,311
840.732239,309
840.850342,314
840.968445,312
841.086548,311
841.204651,326
841.322754,301
841.440918,317
841.55896,319
841.677002,308
841.795166,324
841.913208,306
842.031311,313
842.149353,302
842.267456,321
842.385498,311
842.503601,324
842.621643,304
842.739746,326
842.857788,300
842.97583,319
843.093933,308
843.211975,314
843.330017,308
843.44812,312
843.566101,312
843.684204,302
843.802246,312
843.920227,328
844.038269,318
844.156311,313
844.274292,316
844.392395,315
844.510376,312
844.628357,324
844.74646,313
844.864441,329
844.982422,312
845.100403,315
845.218384,298
845.336426,315
845.454468,326
845.572449,329
845.69043,318
845.808411,317
845.926453,320
846.044373,321
846.162354,307
846.280396,326
846.398315,309
846.516296,322
846.634216,313
846.752197,311
846.870178,308
846.988098,320
847.106079,321
847.22406,327
847.34198,308
847.4599,320
847.577881,304
847.695801,315
847.813782,309
847.931641,311
848.049561,316
848.167603,318
848.285461,318
848.403381,327
848.521362,300
848.639221,323
848.75708,309
848.875,315
848.99292,317
849.110901,316
849.22876,304
849.34668,320
849.464539,306
849.582458,314
849.700317,302
849.818176,328
849.936096,318
850.053955,307
850.171875,305
850.289673,314
850.407593,318
850.525452,317
850.643311,329
850.761169,318
850.878967,303
850.996887,320
851.114746,302
851.232544,326
851.350403,318
851.468262,297
851.58606,319
851.703979,311
851.821777,325
851.939636,323
852.057434,316
852.175232,331
852.293091,316
852.410889,317
852.528687,328
852.646545,316
852.764343,313
852.88208,308
852.999939,308
853.117676,305
853.235535,312
853.353271,320
853.471069,313
853.588928,317
853.706604,320
853.824402,327
853.9422,320
854.059998,314
854.177734,304
854.295532,317
854.413269,302
854.531006,316
854.648804,317
854.766541,325
854.884277,318
855.002014,316
855.119751,303
855.237549,314
855.355225,315
855.473022,322
855.590698,306
855.708435,321
855.826172,312
855.943848,316
856.061646,300
856.179321,313
856.296997,311
856.414795,309
856.53241,317
856.650085,318
856.767822,311
856.885559,314
857.003174,307
857.120911,304
857.238586,307
857.356201,306
857.473938,306
857.591614,302
857.709351,323
857.826965,314
857.944641,321
858.062317,315
858.179993,323
858.297668,321
858.415283,310
858.532959,332
858.650574,315
858.768188,323
858.885803,316
859.003479,292
859.121094,312
859.23877,318
859.356384,317
859.473999,330
859.591675,316
859.709229,310
859.826843,304
859.944458,310
860.062012,323
860.179626,308
860.297302,308
860.414856,313
860.532471,312
860.650024,324
860.767639,309
860.885193,308
861.002808,322
861.120361,309
861.237976,314
861.35553,308
861.473022,308
861.590698,324
861.708191,311
861.825745,308
861.943298,322
862.060852,326
862.178406,323
862.295959,331
862.413513,317
862.531006,319
862.64856,308
862.766113,315
862.883667,310
863.00116,319
863.118713,303
863.236206,311
863.353699,325
863.471252,304
863.588745,316
863.706177,333
863.82373,308
863.941162,316
864.058716,317
864.176208,320
864.29364,316
864.411194,316
864.528687,308
864.646118,320
864.763611,307
864.881042,310
864.998535,302
865.116028,314
865.233459,304
865.350891,339
865.468384,307
865.585754,320
865.703308,310
865.820679,314
865.938171,323
866.055542,316
866.173035,328
866.290466,319
866.407837,322
866.52533,333
866.6427,306
866.760071,320
866.877563,313
866.994934,329
867.112305,321
867.229736,310
867.347107,312
867.464539,315
867.58197,307
867.699341,317
867.81665,311
867.934082,312
868.051453,309
868.168823,317
868.286194,303
868.403564,321
868.520935,305
868.638306,302
868.755676,298
868.872986,313
868.990295,314
869.107727,310
869.225037,318
869.342346,321
869.459717,311
869.577026,312
869.694336,313
869.811707,309
869.929016,320
870.046326,324
870.163635,309
870.280945,308
870.398254,304
870.515564,303
870.632812,327
870.750183,312
870.867432,320
870.984741,312
871.102051,300
871.219299,316
871.336609,309
871.453918,313
871.571106,312
871.688416,315
871.805664,309
871.922852,322
872.040222,316
872.157471,314
872.274719,306
872.391968,321
872.509155,313
872.626465,303
872.743652,324
872.860962,315
872.978149,305
873.095337,323
873.212646,314
873.329834,325
873.44696,312
873.564209,301
873.681396,296
873.798645,309
873.915894,306
874.03302,322
874.150208,316
874.267456,317
874.384583,315
874.501831,318
874.618958,296
874.736145,326
874.853333,327
874.970459,317
875.087646,288
875.204834,321
875.32196,316
875.439148,324
875.556274,297
875.673401,323
875.790527,301
875.907715,323
876.024841,322
876.141968,323
876.259094,317
876.376282,313
876.493347,321
876.610474,316
876.7276,308
876.844727,313
876.961853,310
877.078918,329
877.195984,306
877.313171,315
877.430237,310
877.547302,310
877.664368,310
877.781433,321
877.898499,313
878.015625,318
878.13269,314
878.249695,305
878.366821,309
878.483887,324
878.600952,311
878.717957,323
878.834961,315
878.952087,318
879.069092,299
879.186157,320
879.303162,304
879.420227,312
879.537231,310
879.654236,322
879.77124,315
879.888306,318
880.005249,305
880.122314,320
880.239319,306
880.356323,312
880.473328,308
880.590271,309
880.707275,322
880.824341,321
880.941284,327
881.058228,312
881.175232,317
881.292236,326
881.40918,300
881.526123,320
881.643066,313
881.760071,316
881.877014,307
881.993958,304
882.11084,308
882.227783,318
882.344727,326
882.46167,324
882.578613,310
882.695618,314
882.812439,310
882.929382,314
883.046326,314
883.163208,327
883.280151,322
883.397034,309
883.513916,307
883.630798,310
883.747742,307
883.864563,337
883.981506,317
884.098389,312
884.21521,314
884.332153,315
884.448975,316
884.565796,322
884.682678,315
884.7995,320
884.916443,307
885.033264,316
885.150085,302
885.266968,320
885.383789,294
885.500671,327
885.617493,315
885.734314,322
885.851196,317
885.967896,318
886.084717,306
886.201599,312
886.318359,312
886.435181,315
886.552002,315
886.668762,320
886.785645,323
886.902344,319
887.019165,310
887.135925,315
887.252747,320
887.369446,318
887.486267,316
887.603027,321
887.719788,309
887.836548,316
887.953247,311
888.070068,312
888.186829,329
888.303528,316
888.420288,321
888.536987,323
888.653687,297
888.770447,312
888.887146,309
889.003967,317
889.120667,314
889.237305,306
889.354065,309
889.470703,325
889.587463,323
889.704163,317
889.820862,314
889.937561,327
890.054199,307
890.170837,308
890.287598,316
890.404236,326
890.520874,304
890.637634,310
890.754211,305
890.87085,318
890.987549,303
891.104187,334
891.220886,314
891.337463,319
891.454102,307
891.57074,317
891.687378,315
891.804077,312
891.920654,310
892.037231,317
892.15387,302
892.270447,321
892.387085,320
892.503723,317
892.6203,312
892.736877,319
892.853516,307
892.970032,324
893.08667,315
893.203186,307
893.319763,313
893.43634,333
893.552917,321
893.669556,313
893.786011,311
893.902588,324
894.019165,313
894.135681,321
894.252197,313
894.368835,311
894.485291,311
894.601868,328
894.718384,317
894.8349,323
894.951355,312
895.067932,316
895.184448,313
895.300964,312
895.417419,317
895.533936,314
895.650452,302
895.766907,334
895.883423,317
895.999878,329
896.116333,311
896.232849,311
896.349304,306
896.465759,328
896.582214,315
896.698669,314
896.815125,319
896.931641,317
897.048035,316
897.164551,306
897.280884,309
897.397339,313
897.513794,314
897.630249,310
897.746582,307
897.863098,319
897.979431,301
898.095886,312
898.212341,307
898.328674,320
898.445129,314
898.561462,312
898.677795,320
898.794312,308
898.910645,322
899.026978,324
899.143433,315
899.259766,307
899.37616,306
899.492493,302
899.608765,306
899.725159,320
899.841553,315
899.957947,325
900.07428,319
900.190552,321
900.306946,311
900.423157,313
900.53949,314
900.655884,322
900.772156,303
900.888489,315
901.004822,310
901.121033,314
901.237366,320
901.353699,305
901.46991,309
901.586304,305
901.702515,314
901.818787,311
901.93512,305
902.051331,325
902.167603,304
902.283875,326
902.400085,309
902.516418,322
902.632629,312
902.74884,331
902.865112,319
902.981384,321
903.097595,308
903.213867,321
903.330017,317
903.446289,329
903.5625,320
903.67865,322
903.794922,307
903.911072,320
904.027344,319
904.143494,298
904.259705,307
904.375916,312
904.492065,317
904.608215,330
904.724426,306
904.840576,327
904.956726,324
905.072876,326
905.189087,314
905.305176,312
905.421387,299
905.537537,309
905.653687,298
905.769775,323
905.885925,306
906.002014,319
906.118164,305
906.234314,313
906.350403,318
906.466492,311
906.582642,308
906.69873,310
906.814758,312
906.930908,313
907.046936,313
907.163086,314
907.279175,326
907.395264,317
907.511353,322
907.62738,311
907.743408,303
907.859497,310
907.975525,312
908.091553,304
908.207703,309
908.32373,309
908.439758,314
908.555786,327
908.671814,328
908.787842,318
908.90387,319
909.019775,327
909.135864,327
909.251892,317
909.367859,310
909.483826,320
909.599854,304
909.715881,326
909.831848,303
909.947815,321
910.063782,321
910.179749,312
910.295776,308
910.411743,333
910.527649,292
910.643616,327
910.759583,326
910.875488,315
910.991455,320
911.107361,314
911.223267,319
911.339294,322
911.4552,304
911.571106,321
911.687073,303
911.802979,316
911.918823,321
912.034729,320
912.150635,304
912.266602,305
912.382446,296
912.498352,303
912.614197,315
912.730103,314
912.846008,306
792.44574,304
792.56488,348
792.68396,406
792.80304,367
792.92218,331
793.041199,304
793.160339,309
793.279419,333
793.398499,323
793.517578,308
793.636658,313
793.755737,322
793.874817,347
793.993896,346
794.112976,315
794.232056,330
794.351074,325
794.470215,333
794.589233,322
794.708313,304
794.827393,320
794.946411,323
795.065552,335
795.18457,333
795.303589,335
795.422668,309
795.541687,325
795.660767,312
795.779846,332
795.898865,301
796.017883,329
796.136963,310
796.255981,323
796.375061,324
796.49408,344
796.613037,327
796.732117,322
796.851135,312
796.970154,317
797.089233,324
797.208191,315
797.327271,311
797.446228,333
797.565186,323
797.684265,329
797.803223,328
797.922241,313
798.04126,331
798.160278,327
798.279297,316
798.398315,331
798.517273,309
798.636292,328
798.75531,329
798.874268,335
798.993286,336
799.112244,326
799.231323,321
799.350281,325
799.469238,326
799.588257,329
799.707153,325
799.826111,325
799.945129,310
800.064087,310
800.183044,312
800.302063,323
800.421021,314
800.539978,335
800.658936,330
800.777893,317
800.896912,315
801.015747,327
801.134705,312
801.253723,339
801.37262,311
801.491638,311
801.610535,328
801.729492,316
801.84845,322
801.967407,333
802.086243,311
802.205261,319
802.324158,314
802.443115,329
802.562073,311
802.680969,322
802.799927,316
802.918762,326
803.037659,319
803.156677,316
803.275574,326
803.39447,318
803.513428,327
803.632263,330
803.751221,324
803.870117,321
803.989014,308
804.107971,312
804.226746,323
804.345642,307
804.4646,320
804.583496,312
804.702393,328
804.821228,325
804.940125,317
805.059021,308
805.177917,311
805.296814,311
805.415649,322
805.534546,323
805.653442,324
805.772278,324
805.891113,319
806.01001,325
806.128906,327
806.247742,315
806.366577,317
806.485413,321
806.604309,319
806.723145,303
806.84198,329
806.960876,310
807.079712,317
807.198486,314
807.317383,310
807.436218,331
807.554993,324
807.673889,313
807.792725,325
807.91156,321
808.030396,324
808.14917,313
808.268005,310
808.386841,318
808.505676,331
808.624451,306
808.743286,322
808.862122,311
808.980896,320
809.099731,306
809.218506,313
809.337341,316
809.456116,313
809.57489,329
809.693726,326
809.8125,324
809.931274,319
810.050049,323
810.168884,327
810.287659,321
810.406372,313
810.525269,318
810.643982,312
810.762756,321
810.881531,337
811.000305,315
811.11908,310
811.237854,330
811.356567,323
811.475403,317
811.594116,316
811.71283,323
811.831604,324
811.950378,331
812.069153,326
812.187927,316
812.30658,320
812.425415,313
812.544128,334
812.662781,305
812.781616,321
812.900269,329
813.019043,327
813.137756,337
813.256531,324
813.375244,337
813.493896,313
813.612671,319
813.731384,328
813.850037,316
813.96875,320
814.087524,312
814.206238,310
814.324951,321
814.443604,313
814.562256,316
814.68103,313
814.799683,327
814.918335,330
815.037109,314
815.155762,319
815.274475,330
815.393188,319
815.511841,317
815.630554,313
815.749146,304
815.867859,324
815.986572,319
816.105164,322
816.223877,339
816.342529,312
816.461182,321
816.579895,310
816.698486,330
816.817139,320
816.935791,314
817.054504,328
817.173096,298
817.291748,319
817.4104,315
817.529053,317
817.647644,318
817.766235,324
817.884949,315
818.00354,307
818.122192,324
818.240845,312
818.359436,322
818.478088,321
818.59668,328
818.715271,323
818.833923,315
818.952515,314
819.071106,326
819.189758,313
819.30835,328
819.426941,301
819.545532,339
819.664124,316
819.782715,336
819.901306,321
820.019897,320
820.138489,323
820.25708,324
820.375671,322
820.494202,310
820.612732,313
820.731384,310
820.849915,308
820.968506,316
821.087097,318
821.205627,312
821.324158,332
821.442749,321
821.561279,309
821.679871,321
821.798401,324
821.916931,313
822.035461,324
822.154053,312
822.272583,328
822.391174,324
822.509583,315
822.628174,317
822.746704,327
822.865234,313
822.983765,301
823.102295,318
823.220825,313
823.339294,307
823.457825,323
823.576355,317
823.694824,309
823.813354,316
823.931885,316
824.050354,306
824.168884,319
824.287354,303
824.405823,322
824.524353,326
824.642822,316
824.761353,326
824.879822,315
824.998291,308
825.116699,316
825.235291,316
825.353699,315
825.472168,311
825.590637,330
825.709106,323
825.827576,311
825.946045,312
826.064453,307
826.182983,313
826.301392,317
826.4198,314
826.53833,307
826.656738,311
826.775208,307
826.893677,329
827.012024,313
827.130493,322
827.248962,323
827.36731,308
827.485779,324
827.604248,325
827.722595,306
827.841064,330
827.959412,303
828.077942,316
828.196289,315
828.314636,316
828.433105,311
828.551514,325
828.669861,322
828.78833,314
828.906677,313
829.025085,317
829.143433,319
829.261841,327
829.38031,313
829.498657,332
829.617004,323
829.735413,323
829.85376,310
829.972107,319
830.090515,310
830.208862,317
830.327209,317
830.445557,326
830.563904,310
830.682312,322
830.800659,319
830.919006,315
831.037354,317
831.155701,312
831.274048,310
831.392395,328
831.51062,325
831.629028,311
831.747314,303
831.865662,312
831.984009,314
832.102356,322
832.220642,312
832.338928,314
832.457275,312
832.575623,316
832.693909,319
832.812134,321
832.930481,311
833.048828,325
833.167114,303
833.2854,317
833.403687,305
833.521973,315
833.640259,316
833.758545,307
833.876831,317
833.995056,323
834.113281,317
834.231628,302
834.349915,316
834.468201,329
834.586426,317
834.704651,299
834.822998,331
834.941162,310
835.059448,314
835.177673,319
835.295959,316
835.414246,329
835.53241,311
835.650635,327
835.768921,315
835.887146,320
836.005371,315
836.123596,335
836.241821,307
836.360046,324
836.478271,318
836.596497,319
836.714722,308
836.832886,328
836.95105,294
837.069336,322
837.1875,308
837.305725,331
837.423889,320
837.542053,316
837.660339,324
837.778503,319
837.896667,308
838.014832,327
838.132996,316
838.25116,330
838.369385,331
838.487488,322
838.605713,317
838.723877,325
838.84198,299
838.960205,310
839.078308,313
839.196472,317
839.314636,323
839.4328,329
839.550964,311
839.669067,327
839.787231,313
839.905396,326
840.023499,316
840.141602,329
840.259766,331
840.377869,323
840.495972,310
840.614136,320
840.732239,317
840.850342,321
840.968445,301
841.086548,311
841.204651,306
841.322754,323
841.440918,327
841.55896,320
841.677002,300
841.795166,315
841.913208,323
842.031311,315
842.149353,322
842.267456,312
842.385498,309
842.503601,319
842.621643,319
842.739746,308
842.857788,311
842.97583,309
843.093933,307
843.211975,325
843.330017,313
843.44812,316
843.566101,327
843.684204,327
843.802246,319
843.920227,320
844.038269,307
844.156311,312
844.274292,311
844.392395,318
844.510376,319
844.628357,333
844.74646,322
844.864441,319
844.982422,330
845.100403,309
845.218384,299
845.336426,310
845.454468,328
845.572449,322
845.69043,309
845.808411,311
845.926453,321
846.044373,323
846.162354,308
846.280396,323
846.398315,299
846.516296,316
846.634216,308
846.752197,329
846.870178,301
846.988098,330
847.106079,311
847.22406,316
847.34198,311
847.4599,330
847.577881,321
847.695801,307
847.813782,316
847.931641,315
848.049561,324
848.167603,306
848.285461,315
848.403381,313
848.521362,321
848.639221,329
848.75708,314
848.875,316
848.99292,338
849.110901,329
849.22876,324
849.34668,315
849.464539,307
849.582458,317
849.700317,311
849.818176,325
849.936096,301
850.053955,314
850.171875,316
850.289673,320
850.407593,314
850.525452,310
850.643311,308
850.761169,317
850.878967,313
850.996887,321
851.114746,314
851.232544,317
851.350403,321
851.468262,318
851.58606,329
851.703979,319
851.821777,318
851.939636,314
852.057434,312
852.175232,329
852.293091,316
852.410889,307
852.528687,320
852.646545,328
852.764343,318
852.88208,322
852.999939,317
853.117676,306
853.235535,318
853.353271,315
853.471069,314
853.588928,320
853.706604,318
853.824402,320
853.9422,317
854.059998,310
854.177734,318
854.295532,321
854.413269,321
854.531006,314
854.648804,310
854.766541,315
854.884277,298
855.002014,312
855.119751,314
855.237549,325
855.355225,310
855.473022,326
855.590698,318
855.708435,311
855.826172,321
855.943848,319
856.061646,317
856.179321,315
856.296997,320
856.414795,308
856.53241,302
856.650085,325
856.767822,308
856.885559,327
857.003174,302
857.120911,316
857.238586,318
857.356201,310
857.473938,307
857.591614,313
857.709351,315
857.826965,310
857.944641,298
858.062317,323
858.179993,321
858.297668,313
858.415283,323
858.532959,314
858.650574,327
858.768188,318
858.885803,311
859.003479,315
859.121094,310
859.23877,296
859.356384,310
859.473999,308
859.591675,312
859.709229,332
859.826843,322
859.944458,321
860.062012,315
860.179626,325
860.297302,306
860.414856,324
860.532471,311
860.650024,315
860.767639,307
860.885193,325
861.002808,317
861.120361,312
861.237976,316
861.35553,328
861.473022,303
861.590698,316
861.708191,303
861.825745,322
861.943298,317
862.060852,317
862.178406,317
862.295959,316
862.413513,318
862.531006,316
862.64856,307
862.766113,323
862.883667,314
863.00116,321
863.118713,317
863.236206,318
863.353699,300
863.471252,306
863.588745,312
863.706177,307
863.82373,297
863.941162,315
864.058716,337
864.176208,312
864.29364,321
864.411194,315
864.528687,326
864.646118,312
864.763611,316
864.881042,310
864.998535,323
865.116028,327
865.233459,311
865.350891,328
865.468384,327
865.585754,332
865.703308,317
865.820679,308
865.938171,296
866.055542,324
866.173035,316
866.290466,317
866.407837,317
866.52533,320
866.6427,313
866.760071,312
866.877563,314
866.994934,328
867.112305,331
867.229736,318
867.347107,305
867.464539,325
867.58197,317
867.699341,318
867.81665,318
867.934082,313
868.051453,317
868.168823,310
868.286194,317
868.403564,340
868.520935,300
868.638306,315
868.755676,303
868.872986,311
868.990295,314
869.107727,316
869.225037,320
869.342346,327
869.459717,316
869.577026,315
869.694336,307
869.811707,319
869.929016,314
870.046326,325
870.163635,323
870.280945,339
870.398254,309
870.515564,334
870.632812,296
870.750183,336
870.867432,315
870.984741,324
871.102051,309
871.219299,324
871.336609,307
871.453918,310
871.571106,311
871.688416,332
871.805664,312
871.922852,322
872.040222,319
872.157471,323
872.274719,308
872.391968,312
872.509155,321
872.626465,322
872.743652,318
872.860962,312
872.978149,306
873.095337,316
873.212646,314
873.329834,317
873.44696,311
873.564209,315
873.681396,320
873.798645,313
873.915894,309
874.03302,314
874.150208,309
874.267456,312
874.384583,312
874.501831,319
874.618958,315
874.736145,322
874.853333,316
874.970459,316
875.087646,329
875.204834,318
875.32196,311
875.439148,321
875.556274,306
875.673401,335
875.790527,300
875.907715,321
876.024841,315
876.141968,318
876.259094,315
876.376282,308
876.493347,311
876.610474,308
876.7276,313
876.844727,305
876.961853,314
877.078918,323
877.195984,332
877.313171,315
877.430237,309
877.547302,304
877.664368,313
877.781433,333
877.898499,312
878.015625,330
878.13269,310
878.249695,320
878.366821,314
878.483887,321
878.600952,317
878.717957,324
878.834961,315
878.952087,319
879.069092,316
879.186157,322
879.303162,305
879.420227,323
879.537231,305
879.654236,318
879.77124,323
879.888306,321
880.005249,315
880.122314,309
880.239319,322
880.356323,316
880.473328,308
880.590271,319
880.707275,325
880.824341,317
880.941284,320
881.058228,313
881.175232,313
881.292236,314
881.40918,313
881.526123,317
881.643066,310
881.760071,322
881.877014,321
881.993958,322
882.11084,297
882.227783,325
882.344727,306
882.46167,331
882.578613,307
882.695618,327
882.812439,306
882.929382,312
883.046326,312
883.163208,301
883.280151,303
883.397034,299
883.513916,316
883.630798,324
883.747742,316
883.864563,317
883.981506,309
884.098389,310
884.21521,316
884.332153,317
884.448975,311
884.565796,307
884.682678,300
884.7995,321
884.916443,326
885.033264,313
885.150085,312
885.266968,316
885.383789,335
885.500671,319
885.617493,317
885.734314,311
885.851196,300
885.967896,318
886.084717,316
886.201599,334
886.318359,327
886.435181,310
886.552002,310
886.668762,330
886.785645,317
886.902344,321
887.019165,311
887.135925,325
887.252747,316
887.369446,327
887.486267,318
887.603027,314
887.719788,310
887.836548,326
887.953247,321
888.070068,334
888.186829,308
888.303528,318
888.420288,320
888.536987,335
888.653687,307
888.770447,315
888.887146,320
889.003967,324
889.120667,313
889.237305,311
889.354065,305
889.470703,320
889.587463,302
889.704163,332
889.820862,312
889.937561,311
890.054199,313
890.170837,313
890.287598,317
890.404236,317
890.520874,302
890.637634,309
890.754211,328
890.87085,325
890.987549,302
891.104187,311
891.220886,322
891.337463,321
891.454102,313
891.57074,329
891.687378,311
891.804077,327
891.920654,314
892.037231,323
892.15387,313
892.270447,317
892.387085,319
892.503723,338
892.6203,320
892.736877,328
892.853516,303
892.970032,315
893.08667,318
893.203186,329
893.319763,318
893.43634,313
893.552917,326
893.669556,314
893.786011,313
893.902588,314
894.019165,309
894.135681,318
894.252197,310
894.368835,324
894.485291,317
894.601868,318
894.718384,313
894.8349,313
894.951355,317
895.067932,328
895.184448,320
895.300964,319
895.417419,303
895.533936,328
895.650452,315
895.766907,320
895.883423,324
895.999878,315
896.116333,321
896.232849,322
896.349304,312
896.465759,318
896.582214,327
896.698669,320
896.815125,317
896.931641,327
897.048035,324
897.164551,313
897.280884,304
897.397339,325
897.513794,325
897.630249,314
897.746582,312
897.863098,315
897.979431,318
898.095886,329
898.212341,317
898.328674,319
898.445129,326
898.561462,326
898.677795,322
898.794312,324
898.910645,318
899.026978,324
899.143433,305
899.259766,307
899.37616,314
899.492493,320
899.608765,322
899.725159,325
899.841553,320
899.957947,321
900.07428,316
900.190552,318
900.306946,322
900.423157,312
900.53949,305
900.655884,329
900.772156,316
900.888489,328
901.004822,318
901.121033,322
901.237366,327
901.353699,313
901.46991,312
901.586304,322
901.702515,323
901.818787,324
901.93512,316
902.051331,333
902.167603,313
902.283875,330
902.400085,319
902.516418,337
902.632629,320
902.74884,315
902.865112,315
902.981384,327
903.097595,316
903.213867,310
903.330017,307
903.446289,320
903.5625,331
903.67865,308
903.794922,314
903.911072,318
904.027344,316
904.143494,323
904.259705,316
904.375916,326
904.492065,314
904.608215,318
904.724426,305
904.840576,317
904.956726,318
905.072876,329
905.189087,319
905.305176,316
905.421387,308
905.537537,333
905.653687,308
905.769775,316
905.885925,319
906.002014,325
906.118164,304
906.234314,313
906.350403,308
906.466492,321
906.582642,313
906.69873,321
906.814758,304
906.930908,317
907.046936,302
907.163086,325
907.279175,318
907.395264,325
907.511353,309
907.62738,320
907.743408,318
907.859497,313
907.975525,316
908.091553,329
908.207703,310
908.32373,329
908.439758,303
908.555786,328
908.671814,313
908.787842,320
908.90387,310
909.019775,326
909.135864,311
909.251892,324
909.367859,320
909.483826,330
909.599854,323
909.715881,319
909.831848,314
909.947815,315
910.063782,318
910.179749,304
910.295776,303
910.411743,322
910.527649,316
910.643616,327
910.759583,314
910.875488,320
910.991455,317
911.107361,324
911.223267,325
911.339294,335
911.4552,310
911.571106,318
911.687073,308
911.802979,323
911.918823,317
912.034729,307
912.150635,321
912.266602,330
912.382446,315
912.498352,318
912.614197,310
912.730103,320
912.846008,313
792.44574,303
792.56488,342
792.68396,387
792.80304,381
792.92218,324
793.041199,314
793.160339,331
793.279419,331
793.398499,342
793.517578,314
793.636658,299
793.755737,332
793.874817,344
793.993896,334
794.112976,338
794.232056,326
794.351074,323
794.470215,317
794.589233,327
794.708313,320
794.827393,317
794.946411,333
795.065552,325
795.18457,310
795.303589,316
795.422668,318
795.541687,324
795.660767,323
795.779846,344
795.898865,329
796.017883,318
796.136963,322
796.255981,308
796.375061,321
796.49408,330
796.613037,329
796.732117,319
796.851135,319
796.970154,319
797.089233,319
797.208191,309
797.327271,320
797.446228,323
797.565186,328
797.684265,320
797.803223,327
797.922241,315
798.04126,333
798.160278,329
798.279297,313
798.398315,314
798.517273,317
798.636292,327
798.75531,309
798.874268,320
798.993286,319
799.112244,324
799.231323,319
799.350281,323
799.469238,321
799.588257,314
799.707153,332
799.826111,312
799.945129,318
800.064087,324
800.183044,310
800.302063,328
800.421021,322
800.539978,327
800.658936,325
800.777893,325
800.896912,310
801.015747,334
801.134705,325
801.253723,324
801.37262,334
801.491638,324
801.610535,321
801.729492,313
801.84845,316
801.967407,310
802.086243,315
802.205261,331
802.324158,317
802.443115,316
802.562073,321
802.680969,322
802.799927,313
802.918762,322
803.037659,333
803.156677,313
803.275574,332
803.39447,319
803.513428,314
803.632263,313
803.751221,313
803.870117,325
803.989014,316
804.107971,319
804.226746,326
804.345642,319
804.4646,314
804.583496,327
804.702393,322
804.821228,327
804.940125,322
805.059021,326
805.177917,329
805.296814,312
805.415649,323
805.534546,319
805.653442,327
805.772278,324
805.891113,310
806.01001,320
806.128906,333
806.247742,339
806.366577,326
806.485413,311
806.604309,322
806.723145,316
806.84198,333
806.960876,311
807.079712,301
807.198486,331
807.317383,311
807.436218,317
807.554993,321
807.673889,321
807.792725,322
807.91156,312
808.030396,326
808.14917,313
808.268005,301
808.386841,316
808.505676,315
808.624451,325
808.743286,316
808.862122,304
808.980896,318
809.099731,331
809.218506,324
809.337341,317
809.456116,332
809.57489,326
809.693726,319
809.8125,321
809.931274,309
810.050049,329
810.168884,308
810.287659,331
810.406372,315
810.525269,315
810.643982,323
810.762756,318
810.881531,315
811.000305,318
811.11908,321
811.237854,322
811.356567,323
811.475403,323
811.594116,313
811.71283,331
811.831604,315
811.950378,310
812.069153,312
812.187927,322
812.30658,318
812.425415,317
812.544128,317
812.662781,308
812.781616,315
812.900269,330
813.019043,319
813.137756,321
813.256531,327
813.375244,328
813.493896,317
813.612671,318
813.731384,315
813.850037,320
813.96875,323
814.087524,331
814.206238,319
814.324951,331
814.443604,326
814.562256,315
814.68103,312
814.799683,314
814.918335,314
815.037109,323
815.155762,318
815.274475,324
815.393188,319
815.511841,332
815.630554,318
815.749146,324
815.867859,326
815.986572,326
816.105164,323
816.223877,313
816.342529,326
816.461182,318
816.579895,317
816.698486,321
816.817139,306
816.935791,328
817.054504,326
817.173096,333
817.291748,334
817.4104,324
817.529053,303
817.647644,322
817.766235,327
817.884949,313
818.00354,314
818.122192,310
818.240845,322
818.359436,325
818.478088,309
818.59668,331
818.715271,309
818.833923,308
818.952515,321
819.071106,314
819.189758,309
819.30835,322
819.426941,322
819.545532,311
819.664124,324
819.782715,312
819.901306,315
820.019897,317
820.138489,317
820.25708,316
820.375671,318
820.494202,312
820.612732,309
820.731384,316
820.849915,307
820.968506,320
821.087097,308
821.205627,325
821.324158,317
821.442749,313
821.561279,312
821.679871,312
821.798401,313
821.916931,318
822.035461,319
822.154053,322
822.272583,319
822.391174,317
822.509583,316
822.628174,320
822.746704,320
822.865234,318
822.983765,318
823.102295,315
823.220825,314
823.339294,326
823.457825,314
823.576355,329
823.694824,311
823.813354,319
823.931885,317
824.050354,315
824.168884,299
824.287354,304
824.405823,321
824.524353,317
824.642822,318
824.761353,312
824.879822,324
824.998291,310
825.116699,311
825.235291,317
825.353699,327
825.472168,321
825.590637,315
825.709106,324
825.827576,309
825.946045,327
826.064453,312
826.182983,322
826.301392,305
826.4198,343
826.53833,314
826.656738,312
826.775208,316
826.893677,329
827.012024,312
827.130493,324
827.248962,316
827.36731,323
827.485779,319
827.604248,305
827.722595,314
827.841064,305
827.959412,330
828.077942,324
828.196289,322
828.314636,326
828.433105,314
828.551514,314
828.669861,311
828.78833,307
828.906677,322
829.025085,316
829.143433,325
829.261841,319
829.38031,318
829.498657,309
829.617004,316
829.735413,306
829.85376,307
829.972107,319
830.090515,314
830.208862,316
830.327209,326
830.445557,320
830.563904,305
830.682312,320
830.800659,307
830.919006,318
831.037354,310
831.155701,325
831.274048,321
831.392395,321
831.51062,311
831.629028,322
831.747314,317
831.865662,322
831.984009,307
832.102356,332
832.220642,306
832.338928,324
832.457275,301
832.575623,320
832.693909,312
832.812134,313
832.930481,323
833.048828,315
833.167114,311
833.2854,312
833.403687,301
833.521973,317
833.640259,329
833.758545,305
833.876831,316
833.995056,325
834.113281,297
834.231628,320
834.349915,308
834.468201,318
834.586426,324
834.704651,341
834.822998,315
834.941162,331
835.059448,302
835.177673,313
835.295959,312
835.414246,320
835.53241,312
835.650635,301
835.768921,323
835.887146,303
836.005371,309
836.123596,331
836.241821,311
836.360046,317
836.478271,319
836.596497,304
836.714722,307
836.832886,315
836.95105,315
837.069336,337
837.1875,318
837.305725,316
837.423889,320
837.542053,312
837.660339,326
837.778503,326
837.896667,317
838.014832,319
838.132996,321
838.25116,314
838.369385,315
838.487488,321
838.605713,313
838.723877,302
838.84198,314
838.960205,306
839.078308,322
839.196472,322
839.314636,314
839.4328,313
839.550964,321
839.669067,323
839.787231,312
839.905396,320
840.023499,321
840.141602,297
840.259766,327
840.377869,326
840.495972,306
840.614136,319
840.732239,316
840.850342,313
840.968445,317
841.086548,316
841.204651,314
841.322754,336
841.440918,315
841.55896,315
841.677002,309
841.795166,316
841.913208,319
842.031311,315
842.149353,317
842.267456,331
842.385498,322
842.503601,321
842.621643,312
842.739746,323
842.857788,313
842.97583,327
843.093933,316
843.211975,313
843.330017,313
843.44812,318
843.566101,324
843.684204,321
843.802246,318
843.920227,319
844.038269,301
844.156311,320
844.274292,314
844.392395,331
844.510376,306
844.628357,314
844.74646,325
844.864441,316
844.982422,313
845.100403,328
845.218384,312
845.336426,320
845.454468,317
845.572449,314
845.69043,307
845.808411,317
845.926453,313
846.044373,331
846.162354,307
846.280396,317
846.398315,326
846.516296,327
846.634216,314
846.752197,321
846.870178,322
846.988098,323
847.106079,316
847.22406,335
847.34198,320
847.4599,304
847.577881,309
847.695801,316
847.813782,333
847.931641,300
848.049561,311
848.167603,317
848.285461,314
848.403381,318
848.521362,320
848.639221,316
848.75708,316
848.875,335
848.99292,309
849.110901,321
849.22876,308
849.34668,323
849.464539,312
849.582458,329
849.700317,316
849.818176,315
849.936096,318
850.053955,325
850.171875,302
850.289673,318
850.407593,311
850.525452,328
850.643311,324
850.761169,322
850.878967,311
850.996887,329
851.114746,315
851.232544,317
851.350403,317
851.468262,316
851.58606,311
851.703979,324
851.821777,323
851.939636,328
852.057434,315
852.175232,317
852.293091,314
852.410889,340
852.528687,304
852.646545,318
852.764343,320
852.88208,312
852.999939,328
853.117676,315
853.235535,306
853.353271,316
853.471069,310
853.588928,309
853.706604,314
853.824402,320
853.9422,321
854.059998,311
854.177734,321
854.295532,313
854.413269,325
854.531006,317
854.648804,322
854.766541,321
854.884277,314
855.002014,310
855.119751,309
855.237549,309
855.355225,308
855.473022,332
855.590698,319
855.708435,321
855.826172,322
855.943848,341
856.061646,314
856.179321,310
856.296997,318
856.414795,320
856.53241,325
856.650085,306
856.767822,321
856.885559,315
857.003174,311
857.120911,313
857.238586,319
857.356201,325
857.473938,312
857.591614,311
857.709351,327
857.826965,317
857.944641,314
858.062317,316
858.179993,318
858.297668,315
858.415283,313
858.532959,322
858.650574,316
858.768188,315
858.885803,314
859.003479,325
859.121094,309
859.23877,308
859.356384,297
859.473999,335
859.591675,322
859.709229,314
859.826843,317
859.944458,315
860.062012,313
860.179626,318
860.297302,320
860.414856,312
860.532471,307
860.650024,325
860.767639,311
860.885193,316
861.002808,309
861.120361,321
861.237976,318
861.35553,324
861.473022,322
861.590698,303
861.708191,315
861.825745,314
861.943298,323
862.060852,325
862.178406,322
862.295959,328
862.413513,313
862.531006,303
862.64856,314
862.766113,326
862.883667,315
863.00116,317
863.118713,325
863.236206,316
863.353699,310
863.471252,321
863.588745,331
863.706177,317
863.82373,305
863.941162,305
864.058716,300
864.176208,321
864.29364,307
864.411194,313
864.528687,314
864.646118,327
864.763611,317
864.881042,313
864.998535,308
865.116028,322
865.233459,296
865.350891,320
865.468384,315
865.585754,327
865.703308,328
865.820679,313
865.938171,309
866.055542,324
866.173035,309
866.290466,337
866.407837,306
866.52533,315
866.6427,321
866.760071,312
866.877563,319
866.994934,314
867.112305,339
867.229736,319
867.347107,305
867.464539,329
867.58197,308
867.699341,315
867.81665,305
867.934082,313
868.051453,318
868.168823,323
868.286194,303
868.403564,306
868.520935,329
868.638306,328
868.755676,311
868.872986,321
868.990295,313
869.107727,308
869.225037,314
869.342346,327
869.459717,310
869.577026,315
869.694336,303
869.811707,342
869.929016,313
870.046326,310
870.163635,320
870.280945,325
870.398254,309
870.515564,320
870.632812,304
870.750183,322
870.867432,313
870.984741,322
871.102051,308
871.219299,329
871.336609,322
871.453918,311
871.571106,319
871.688416,321
871.805664,317
871.922852,317
872.040222,319
872.157471,314
872.274719,309
872.391968,326
872.509155,317
872.626465,312
872.743652,317
872.860962,319
872.978149,311
873.095337,322
873.212646,307
873.329834,316
873.44696,308
873.564209,317
873.681396,295
873.798645,313
873.915894,314
874.03302,324
874.150208,309
874.267456,322
874.384583,318
874.501831,325
874.618958,327
874.736145,317
874.853333,316
874.970459,317
875.087646,322
875.204834,319
875.32196,327
875.439148,323
875.556274,325
875.673401,322
875.790527,314
875.907715,331
876.024841,306
876.141968,315
876.259094,317
876.376282,315
876.493347,311
876.610474,319
876.7276,321
876.844727,321
876.961853,325
877.078918,325
877.195984,319
877.313171,316
877.430237,320
877.547302,311
877.664368,311
877.781433,332
877.898499,312
878.015625,317
878.13269,312
878.249695,327
878.366821,319
878.483887,314
878.600952,318
878.717957,324
878.834961,318
878.952087,308
879.069092,309
879.186157,319
879.303162,327
879.420227,323
879.537231,320
879.654236,317
879.77124,322
879.888306,314
880.005249,307
880.122314,324
880.239319,308
880.356323,326
880.473328,314
880.590271,323
880.707275,320
880.824341,327
880.941284,316
881.058228,328
881.175232,320
881.292236,315
881.40918,317
881.526123,325
881.643066,323
881.760071,326
881.877014,322
881.993958,308
882.11084,307
882.227783,319
882.344727,313
882.46167,319
882.578613,316
882.695618,299
882.812439,312
882.929382,326
883.046326,315
883.163208,327
883.280151,317
883.397034,326
883.513916,327
883.630798,314
883.747742,324
883.864563,326
883.981506,308
884.098389,333
884.21521,320
884.332153,311
884.448975,305
884.565796,324
884.682678,307
884.7995,325
884.916443,314
885.033264,315
885.150085,302
885.266968,332
885.383789,313
885.500671,311
885.617493,312
885.734314,325
885.851196,320
885.967896,322
886.084717,318
886.201599,322
886.318359,313
886.435181,319
886.552002,323
886.668762,316
886.785645,307
886.902344,307
887.019165,318
887.135925,323
887.252747,314
887.369446,311
887.486267,304
887.603027,313
887.719788,315
887.836548,326
887.953247,317
888.070068,322
888.186829,328
888.303528,312
888.420288,319
888.536987,311
888.653687,307
888.770447,325
888.887146,317
889.003967,331
889.120667,311
889.237305,312
889.354065,322
889.470703,326
889.587463,323
889.704163,320
889.820862,319
889.937561,326
890.054199,312
890.170837,323
890.287598,308
890.404236,316
890.520874,317
890.637634,322
890.754211,308
890.87085,319
890.987549,312
891.104187,316
891.220886,316
891.337463,314
891.454102,317
891.57074,309
891.687378,309
891.804077,320
891.920654,325
892.037231,320
892.15387,312
892.270447,329
892.387085,318
892.503723,318
892.6203,323
892.736877,317
892.853516,321
892.970032,318
893.08667,314
893.203186,318
893.319763,314
893.43634,311
893.552917,301
893.669556,332
893.786011,322
893.902588,317
894.019165,308
894.135681,330
894.252197,319
894.368835,321
894.485291,304
894.601868,335
894.718384,327
894.8349,316
894.951355,333
895.067932,304
895.184448,300
895.300964,306
895.417419,320
895.533936,313
895.650452,333
895.766907,322
895.883423,325
895.999878,316
896.116333,313
896.232849,333
896.349304,320
896.465759,314
896.582214,319
896.698669,324
896.815125,316
896.931641,343
897.048035,311
897.164551,311
897.280884,330
897.397339,324
897.513794,324
897.630249,309
897.746582,326
897.863098,315
897.979431,326
898.095886,317
898.212341,335
898.328674,309
898.445129,323
898.561462,328
898.677795,320
898.794312,306
898.910645,310
899.026978,318
899.143433,326
899.259766,326
899.37616,318
899.492493,311
899.608765,311
899.725159,312
899.841553,318
899.957947,295
900.07428,317
900.190552,310
900.306946,311
900.423157,322
900.53949,312
900.655884,315
900.772156,311
900.888489,324
901.004822,329
901.121033,320
901.237366,312
901.353699,322
901.46991,322
901.586304,335
901.702515,303
901.818787,324
901.93512,318
902.051331,315
902.167603,321
902.283875,324
902.400085,307
902.516418,313
902.632629,320
902.74884,320
902.865112,317
902.981384,323
903.097595,318
903.213867,320
903.330017,321
903.446289,336
903.5625,320
903.67865,325
903.794922,308
903.911072,321
904.027344,319
904.143494,323
904.259705,316
904.375916,317
904.492065,315
904.608215,327
904.724426,315
904.840576,308
904.956726,328
905.072876,311
905.189087,314
905.305176,307
905.421387,310
905.537537,319
905.653687,320
905.769775,327
905.885925,316
906.002014,309
906.118164,331
906.234314,337
906.350403,306
906.466492,328
906.582642,313
906.69873,323
906.814758,325
906.930908,318
907.046936,323
907.163086,326
907.279175,321
907.395264,318
907.511353,309
907.62738,320
907.743408,320
907.859497,321
907.975525,319
908.091553,314
908.207703,311
908.32373,304
908.439758,309
908.555786,321
908.671814,316
908.787842,320
908.90387,307
909.019775,313
909.135864,316
909.251892,328
909.367859,316
909.483826,316
909.599854,303
909.715881,336
909.831848,317
909.947815,308
910.063782,309
910.179749,324
910.295776,306
910.411743,318
910.527649,296
910.643616,327
910.759583,306
910.875488,320
910.991455,314
911.107361,312
911.223267,316
911.339294,330
911.4552,306
911.571106,336
911.687073,322
911.802979,331
911.918823,300
912.034729,323
912.150635,307
912.266602,320
912.382446,314
912.498352,330
912.614197,328
912.730103,311
912.846008,304
