792.44574,307
792.56488,337
792.68396,390
792.80304,367
792.92218,330
793.041199,310
793.160339,307
793.279419,323
793.398499,324
793.517578,294
793.636658,307
793.755737,321
793.874817,345
793.993896,346
794.112976,323
794.232056,306
794.351074,323
794.470215,318
794.589233,322
794.708313,297
794.827393,320
794.946411,306
795.065552,343
795.18457,323
795.303589,325
795.422668,318
795.541687,327
795.660767,327
795.779846,329
795.898865,317
796.017883,315
796.136963,329
796.255981,313
796.375061,327
796.49408,329
796.613037,320
796.732117,305
796.851135,323
796.970154,321
797.089233,319
797.208191,309
797.327271,312
797.446228,308
797.565186,323
797.684265,312
797.803223,330
797.922241,325
798.04126,318
798.160278,322
798.279297,307
798.398315,329
798.517273,299
798.636292,321
798.75531,319
798.874268,336
798.993286,325
799.112244,306
799.231323,319
799.350281,318
799.469238,303
799.588257,336
799.707153,305
799.826111,319
799.945129,312
800.064087,331
800.183044,304
800.302063,316
800.421021,318
800.539978,324
800.658936,311
800.777893,312
800.896912,314
801.015747,322
801.134705,325
801.253723,309
801.37262,312
801.491638,321
801.610535,318
801.729492,342
801.84845,316
801.967407,309
802.086243,314
802.205261,316
802.324158,321
802.443115,320
802.562073,321
802.680969,326
802.799927,331
802.918762,313
803.037659,307
803.156677,328
803.275574,319
803.39447,310
803.513428,329
803.632263,311
803.751221,315
803.870117,310
803.989014,312
804.107971,315
804.226746,311
804.345642,321
804.4646,321
804.583496,320
804.702393,327
804.821228,319
804.940125,326
805.059021,309
805.177917,317
805.296814,317
805.415649,316
805.534546,307
805.653442,315
805.772278,316
805.891113,308
806.01001,321
806.128906,316
806.247742,325
806.366577,319
806.485413,327
806.604309,314
806.723145,319
806.84198,298
806.960876,317
807.079712,321
807.198486,317
807.317383,333
807.436218,310
807.554993,322
807.673889,326
807.792725,317
807.91156,321
808.030396,322
808.14917,310
808.268005,316
808.386841,314
808.505676,301
808.624451,312
808.743286,312
808.862122,299
808.980896,308
809.099731,315
809.218506,329
809.337341,319
809.456116,315
809.57489,314
809.693726,311
809.8125,318
809.931274,323
810.050049,312
810.168884,318
810.287659,313
810.406372,334
810.525269,325
810.643982,322
810.762756,325
810.881531,320
811.000305,305
811.11908,311
811.237854,318
811.356567,324
811.475403,319
811.594116,323
811.71283,309
811.831604,317
811.950378,322
812.069153,312
812.187927,319
812.30658,319
812.425415,326
812.544128,320
812.662781,332
812.781616,324
812.900269,310
813.019043,313
813.137756,308
813.256531,322
813.375244,319
813.493896,319
813.612671,311
813.731384,319
813.850037,319
813.96875,316
814.087524,320
814.206238,324
814.324951,313
814.443604,310
814.562256,318
814.68103,323
814.799683,324
814.918335,307
815.037109,324
815.155762,316
815.274475,320
815.393188,320
815.511841,312
815.630554,322
815.749146,321
815.867859,312
815.986572,331
816.105164,330
816.223877,312
816.342529,317
816.461182,319
816.579895,318
816.698486,330
816.817139,319
816.935791,316
817.054504,308
817.173096,311
817.291748,318
817.4104,312
817.529053,316
817.647644,332
817.766235,304
817.884949,307
818.00354,326
818.122192,309
818.240845,321
818.359436,327
818.478088,315
818.59668,313
818.715271,309
818.833923,316
818.952515,332
819.071106,307
819.189758,320
819.30835,307
819.426941,314
819.545532,328
819.664124,319
819.782715,327
819.901306,314
820.019897,314
820.138489,316
820.25708,315
820.375671,321
820.494202,320
820.612732,310
820.731384,316
820.849915,295
820.968506,314
821.087097,303
821.205627,327
821.324158,311
821.442749,323
821.561279,321
821.679871,310
821.798401,305
821.916931,323
822.035461,322
822.154053,316
822.272583,319
822.391174,325
822.509583,320
822.628174,326
822.746704,315
822.865234,311
822.983765,305
823.102295,305
823.220825,310
823.339294,321
823.457825,329
823.576355,311
823.694824,311
823.813354,309
823.931885,317
824.050354,315
824.168884,327
824.287354,324
824.405823,318
824.524353,311
824.642822,321
824.761353,314
824.879822,315
824.998291,311
825.116699,321
825.235291,319
825.353699,316
825.472168,313
825.590637,316
825.709106,309
825.827576,308
825.946045,324
826.064453,306
826.182983,318
826.301392,318
826.4198,318
826.53833,319
826.656738,300
826.775208,304
826.893677,315
827.012024,314
827.130493,321
827.248962,304
827.36731,315
827.485779,315
827.604248,323
827.722595,323
827.841064,321
827.959412,317
828.077942,320
828.196289,315
828.314636,313
828.433105,312
828.551514,314
828.669861,301
828.78833,313
828.906677,311
829.025085,331
829.143433,310
829.261841,325
829.38031,308
829.498657,331
829.617004,312
829.735413,317
829.85376,302
829.972107,321
830.090515,296
830.208862,308
830.327209,318
830.445557,306
830.563904,313
830.682312,317
830.800659,319
830.919006,307
831.037354,328
831.155701,307
831.274048,320
831.392395,317
831.51062,323
831.629028,316
831.747314,307
831.865662,318
831.984009,320
832.102356,297
832.220642,323
832.338928,322
832.457275,322
832.575623,309
832.693909,310
832.812134,328
832.930481,316
833.048828,324
833.167114,312
833.2854,321
833.403687,292
833.521973,310
833.640259,318
833.758545,308
833.876831,305
833.995056,313
834.113281,296
834.231628,312
834.349915,303
834.468201,320
834.586426,311
834.704651,323
834.822998,327
834.941162,322
835.059448,309
835.177673,321
835.295959,330
835.414246,320
835.53241,316
835.650635,304
835.768921,300
835.887146,314
836.005371,312
836.123596,315
836.241821,312
836.360046,323
836.478271,306
836.596497,319
836.714722,326
836.832886,323
836.95105,299
837.069336,314
837.1875,316
837.305725,317
837.423889,307
837.542053,323
837.660339,303
837.778503,321
837.896667,312
838.014832,325
838.132996,304
838.25116,318
838.369385,326
838.487488,317
838.605713,307
838.723877,325
838.84198,299
838.960205,313
839.078308,313
839.196472,317
839.314636,324
839.4328,317
839.550964,303
839.669067,315
839.787231,316
839.905396,322
840.023499,311
840.141602,318
840.259766,324
840.377869,312
840.495972,308
840.614136,310
840.732239,324
840.850342,315
840.968445,306
841.086548,309
841.204651,317
841.322754,312
841.440918,321
841.55896,327
841.677002,308
841.795166,323
841.913208,324
842.031311,305
842.149353,323
842.267456,315
842.385498,330
842.503601,314
842.621643,294
842.739746,302
842.857788,308
842.97583,307
843.093933,315
843.211975,307
843.330017,309
843.44812,326
843.566101,310
843.684204,301
843.802246,312
843.920227,308
844.038269,318
844.156311,303
844.274292,315
844.392395,321
844.510376,312
844.628357,315
844.74646,323
844.864441,311
844.982422,308
845.100403,302
845.218384,317
845.336426,309
845.454468,321
845.572449,301
845.69043,309
845.808411,305
845.926453,306
846.044373,326
846.162354,307
846.280396,316
846.398315,295
846.516296,300
846.634216,310
846.752197,317
846.870178,305
846.988098,321
847.106079,317
847.22406,307
847.34198,323
847.4599,313
847.577881,310
847.695801,311
847.813782,321
847.931641,324
848.049561,311
848.167603,312
848.285461,319
848.403381,323
848.521362,303
848.639221,312
848.75708,312
848.875,319
848.99292,311
849.110901,325
849.22876,308
849.34668,314
849.464539,315
849.582458,322
849.700317,306
849.818176,319
849.936096,317
850.053955,319
850.171875,327
850.289673,315
850.407593,300
850.525452,316
850.643311,300
850.761169,320
850.878967,316
850.996887,317
851.114746,320
851.232544,318
851.350403,316
851.468262,303
851.58606,310
851.703979,323
851.821777,304
851.939636,322
852.057434,316
852.175232,322
852.293091,296
852.410889,318
852.528687,314
852.646545,313
852.764343,323
852.88208,316
852.999939,310
853.117676,319
853.235535,311
853.353271,320
853.471069,321
853.588928,306
853.706604,320
853.824402,319
853.9422,317
854.059998,313
854.177734,304
854.295532,303
854.413269,309
854.531006,316
854.648804,309
854.766541,309
854.884277,318
855.002014,307
855.119751,311
855.237549,325
855.355225,305
855.473022,311
855.590698,329
855.708435,317
855.826172,325
855.943848,313
856.061646,292
856.179321,321
856.296997,310
856.414795,315
856.53241,318
856.650085,328
856.767822,309
856.885559,310
857.003174,317
857.120911,311
857.238586,319
857.356201,312
857.473938,318
857.591614,325
857.709351,315
857.826965,326
857.944641,328
858.062317,327
858.179993,323
858.297668,312
858.415283,304
858.532959,316
858.650574,313
858.768188,329
858.885803,308
859.003479,320
859.121094,305
859.23877,313
859.356384,304
859.473999,318
859.591675,312
859.709229,319
859.826843,309
859.944458,314
860.062012,307
860.179626,332
860.297302,314
860.414856,303
860.532471,321
860.650024,314
860.767639,310
860.885193,320
861.002808,314
861.120361,318
861.237976,317
861.35553,327
861.473022,317
861.590698,324
861.708191,320
861.825745,317
861.943298,301
862.060852,329
862.178406,312
862.295959,331
862.413513,314
862.531006,299
862.64856,314
862.766113,314
862.883667,298
863.00116,310
863.118713,314
863.236206,316
863.353699,320
863.471252,325
863.588745,312
863.706177,316
863.82373,314
863.941162,303
864.058716,312
864.176208,303
864.29364,320
864.411194,323
864.528687,322
864.646118,322
864.763611,296
864.881042,323
864.998535,312
865.116028,312
865.233459,324
865.350891,320
865.468384,319
865.585754,306
865.703308,304
865.820679,333
865.938171,298
866.055542,318
866.173035,315
866.290466,320
866.407837,317
866.52533,318
866.6427,311
866.760071,332
866.877563,309
866.994934,328
867.112305,307
867.229736,314
867.347107,311
867.464539,302
867.58197,328
867.699341,318
867.81665,334
867.934082,316
868.051453,303
868.168823,310
868.286194,308
868.403564,322
868.520935,305
868.638306,321
868.755676,321
868.872986,308
868.990295,303
869.107727,319
869.225037,308
869.342346,308
869.459717,330
869.577026,324
869.694336,324
869.811707,326
869.929016,322
870.046326,319
870.163635,321
870.280945,314
870.398254,309
870.515564,326
870.632812,312
870.750183,312
870.867432,309
870.984741,320
871.102051,319
871.219299,317
871.336609,322
871.453918,330
871.571106,310
871.688416,318
871.805664,308
871.922852,315
872.040222,313
872.157471,333
872.274719,309
872.391968,305
872.509155,303
872.626465,309
872.743652,313
872.860962,319
872.978149,310
873.095337,325
873.212646,317
873.329834,329
873.44696,317
873.564209,318
873.681396,324
873.798645,320
873.915894,316
874.03302,315
874.150208,312
874.267456,307
874.384583,312
874.501831,317
874.618958,324
874.736145,323
874.853333,312
874.970459,309
875.087646,315
875.204834,317
875.32196,335
875.439148,321
875.556274,306
875.673401,319
875.790527,308
875.907715,308
876.024841,312
876.141968,314
876.259094,298
876.376282,310
876.493347,315
876.610474,316
876.7276,309
876.844727,300
876.961853,316
877.078918,324
877.195984,314
877.313171,325
877.430237,300
877.547302,310
877.664368,312
877.781433,311
877.898499,312
878.015625,316
878.13269,315
878.249695,307
878.366821,304
878.483887,315
878.600952,320
878.717957,320
878.834961,317
878.952087,320
879.069092,312
879.186157,307
879.303162,320
879.420227,321
879.537231,311
879.654236,305
879.77124,316
879.888306,316
880.005249,319
880.122314,305
880.239319,310
880.356323,304
880.473328,308
880.590271,318
880.707275,314
880.824341,314
880.941284,315
881.058228,324
881.175232,317
881.292236,319
881.40918,307
881.526123,320
881.643066,305
881.760071,316
881.877014,317
881.993958,320
882.11084,301
882.227783,318
882.344727,303
882.46167,331
882.578613,309
882.695618,309
882.812439,318
882.929382,312
883.046326,305
883.163208,328
883.280151,310
883.397034,320
883.513916,304
883.630798,319
883.747742,304
883.864563,310
883.981506,320
884.098389,313
884.21521,311
884.332153,321
884.448975,311
884.565796,321
884.682678,319
884.7995,318
884.916443,308
885.033264,317
885.150085,313
885.266968,304
885.383789,321
885.500671,311
885.617493,321
885.734314,319
885.851196,322
885.967896,324
886.084717,318
886.201599,317
886.318359,314
886.435181,322
886.552002,302
886.668762,317
886.785645,318
886.902344,313
887.019165,313
887.135925,319
887.252747,311
887.369446,322
887.486267,313
887.603027,310
887.719788,323
887.836548,306
887.953247,298
888.070068,311
888.186829,304
888.303528,299
888.420288,314
888.536987,325
888.653687,310
888.770447,330
888.887146,312
889.003967,318
889.120667,314
889.237305,308
889.354065,312
889.470703,320
889.587463,336
889.704163,308
889.820862,300
889.937561,329
890.054199,316
890.170837,322
890.287598,312
890.404236,328
890.520874,312
890.637634,327
890.754211,310
890.87085,322
890.987549,311
891.104187,317
891.220886,323
891.337463,315
891.454102,311
891.57074,316
891.687378,313
891.804077,331
891.920654,306
892.037231,326
892.15387,309
892.270447,317
892.387085,314
892.503723,329
892.6203,312
892.736877,321
892.853516,320
892.970032,322
893.08667,306
893.203186,327
893.319763,316
893.43634,310
893.552917,320
893.669556,314
893.786011,312
893.902588,314
894.019165,309
894.135681,320
894.252197,311
894.368835,324
894.485291,328
894.601868,329
894.718384,318
894.8349,326
894.951355,310
895.067932,328
895.184448,301
895.300964,315
895.417419,320
895.533936,309
895.650452,317
895.766907,322
895.883423,314
895.999878,318
896.116333,305
896.232849,322
896.349304,313
896.465759,315
896.582214,305
896.698669,313
896.815125,324
896.931641,325
897.048035,311
897.164551,315
897.280884,310
897.397339,308
897.513794,307
897.630249,323
897.746582,318
897.863098,315
897.979431,311
898.095886,324
898.212341,310
898.328674,306
898.445129,319
898.561462,320
898.677795,313
898.794312,321
898.910645,316
899.026978,309
899.143433,310
899.259766,318
899.37616,308
899.492493,310
899.608765,322
899.725159,325
899.841553,316
899.957947,321
900.07428,320
900.190552,299
900.306946,309
900.423157,328
900.53949,310
900.655884,327
900.772156,314
900.888489,323
901.004822,313
901.121033,313
901.237366,312
901.353699,319
901.46991,313
901.586304,314
901.702515,315
901.818787,315
901.93512,296
902.051331,317
902.167603,313
902.283875,322
902.400085,320
902.516418,321
902.632629,323
902.74884,304
902.865112,318
902.981384,322
903.097595,309
903.213867,309
903.330017,322
903.446289,314
903.5625,320
903.67865,323
903.794922,312
903.911072,311
904.027344,310
904.143494,324
904.259705,304
904.375916,312
904.492065,312
904.608215,316
904.724426,309
904.840576,312
904.956726,304
905.072876,325
905.189087,323
905.305176,315
905.421387,306
905.537537,322
905.653687,315
905.769775,323
905.885925,319
906.002014,322
906.118164,307
906.234314,310
906.350403,324
906.466492,324
906.582642,311
906.69873,321
906.814758,326
906.930908,323
907.046936,325
907.163086,311
907.279175,307
907.395264,313
907.511353,318
907.62738,330
907.743408,316
907.859497,323
907.975525,313
908.091553,318
908.207703,317
908.32373,311
908.439758,325
908.555786,319
908.671814,316
908.787842,322
908.90387,323
909.019775,319
909.135864,300
909.251892,319
909.367859,312
909.483826,323
909.599854,316
909.715881,328
909.831848,308
909.947815,314
910.063782,309
910.179749,315
910.295776,307
910.411743,325
910.527649,304
910.643616,313
910.759583,301
910.875488,318
910.991455,310
911.107361,321
911.223267,312
911.339294,324
911.4552,310
911.571106,320
911.687073,311
911.802979,331
911.918823,308
912.034729,324
912.150635,311
912.266602,316
912.382446,305
912.498352,316
912.614197,315
912.730103,332
912.846008,317
792.44574,300
792.56488,333
792.68396,381
792.80304,378
792.92218,324
793.041199,296
793.160339,305
793.279419,325
793.398499,329
793.517578,312
793.636658,323
793.755737,321
793.874817,329
793.993896,322
794.112976,319
794.232056,312
794.351074,325
794.470215,325
794.589233,312
794.708313,310
794.827393,329
794.946411,330
795.065552,332
795.18457,325
795.303589,321
795.422668,326
795.541687,309
795.660767,322
795.779846,325
795.898865,325
796.017883,336
796.136963,318
796.255981,317
796.375061,324
796.49408,326
796.613037,307
796.732117,336
796.851135,316
796.970154,328
797.089233,315
797.208191,330
797.327271,326
797.446228,321
797.565186,323
797.684265,323
797.803223,320
797.922241,320
798.04126,332
798.160278,329
798.279297,310
798.398315,333
798.517273,312
798.636292,330
798.75531,321
798.874268,322
798.993286,324
799.112244,325
799.231323,325
799.350281,308
799.469238,324
799.588257,311
799.707153,310
799.826111,312
799.945129,306
800.064087,318
800.183044,314
800.302063,324
800.421021,325
800.539978,311
800.658936,316
800.777893,315
800.896912,310
801.015747,320
801.134705,315
801.253723,330
801.37262,319
801.491638,318
801.610535,320
801.729492,328
801.84845,314
801.967407,313
802.086243,324
802.205261,317
802.324158,323
802.443115,329
802.562073,317
802.680969,304
802.799927,315
802.918762,321
803.037659,326
803.156677,315
803.275574,306
803.39447,332
803.513428,312
803.632263,332
803.751221,324
803.870117,320
803.989014,327
804.107971,340
804.226746,317
804.345642,319
804.4646,319
804.583496,324
804.702393,317
804.821228,311
804.940125,313
805.059021,311
805.177917,322
805.296814,324
805.415649,314
805.534546,307
805.653442,328
805.772278,321
805.891113,324
806.01001,325
806.128906,324
806.247742,331
806.366577,325
806.485413,324
806.604309,323
806.723145,305
806.84198,320
806.960876,319
807.079712,308
807.198486,324
807.317383,306
807.436218,314
807.554993,313
807.673889,322
807.792725,328
807.91156,316
808.030396,320
808.14917,330
808.268005,301
808.386841,319
808.505676,313
808.624451,320
808.743286,325
808.862122,325
808.980896,328
809.099731,317
809.218506,325
809.337341,318
809.456116,314
809.57489,317
809.693726,316
809.8125,324
809.931274,316
810.050049,329
810.168884,299
810.287659,339
810.406372,317
810.525269,318
810.643982,322
810.762756,315
810.881531,311
811.000305,310
811.11908,314
811.237854,312
811.356567,315
811.475403,321
811.594116,310
811.71283,310
811.831604,316
811.950378,331
812.069153,318
812.187927,326
812.30658,320
812.425415,326
812.544128,309
812.662781,346
812.781616,321
812.900269,314
813.019043,324
813.137756,314
813.256531,309
813.375244,312
813.493896,313
813.612671,317
813.731384,317
813.850037,314
813.96875,319
814.087524,336
814.206238,324
814.324951,328
814.443604,319
814.562256,339
814.68103,310
814.799683,316
814.918335,328
815.037109,321
815.155762,320
815.274475,317
815.393188,322
815.511841,314
815.630554,322
815.749146,325
815.867859,321
815.986572,319
816.105164,336
816.223877,319
816.342529,318
816.461182,318
816.579895,319
816.698486,332
816.817139,327
816.935791,320
817.054504,317
817.173096,310
817.291748,310
817.4104,323
817.529053,305
817.647644,325
817.766235,318
817.884949,330
818.00354,315
818.122192,313
818.240845,309
818.359436,317
818.478088,316
818.59668,320
818.715271,318
818.833923,326
818.952515,308
819.071106,330
819.189758,310
819.30835,315
819.426941,316
819.545532,322
819.664124,321
819.782715,331
819.901306,313
820.019897,311
820.138489,313
820.25708,322
820.375671,337
820.494202,308
820.612732,310
820.731384,320
820.849915,323
820.968506,322
821.087097,312
821.205627,331
821.324158,309
821.442749,311
821.561279,322
821.679871,316
821.798401,321
821.916931,313
822.035461,322
822.154053,318
822.272583,310
822.391174,318
822.509583,324
822.628174,331
822.746704,298
822.865234,325
822.983765,312
823.102295,320
823.220825,314
823.339294,332
823.457825,301
823.576355,327
823.694824,312
823.813354,321
823.931885,307
824.050354,315
824.168884,306
824.287354,326
824.405823,316
824.524353,315
824.642822,305
824.761353,328
824.879822,311
824.998291,327
825.116699,316
825.235291,310
825.353699,318
825.472168,326
825.590637,311
825.709106,318
825.827576,303
825.946045,308
826.064453,316
826.182983,315
826.301392,320
826.4198,315
826.53833,320
826.656738,316
826.775208,328
826.893677,315
827.012024,316
827.130493,324
827.248962,315
827.36731,326
827.485779,312
827.604248,315
827.722595,300
827.841064,325
827.959412,314
828.077942,325
828.196289,308
828.314636,326
828.433105,322
828.551514,325
828.669861,309
828.78833,326
828.906677,322
829.025085,335
829.143433,312
829.261841,323
829.38031,306
829.498657,319
829.617004,323
829.735413,326
829.85376,322
829.972107,318
830.090515,315
830.208862,317
830.327209,310
830.445557,308
830.563904,314
830.682312,328
830.800659,302
830.919006,304
831.037354,302
831.155701,318
831.274048,312
831.392395,320
831.51062,314
831.629028,320
831.747314,308
831.865662,314
831.984009,298
832.102356,318
832.220642,307
832.338928,316
832.457275,316
832.575623,318
832.693909,314
832.812134,319
832.930481,311
833.048828,326
833.167114,306
833.2854,328
833.403687,304
833.521973,314
833.640259,319
833.758545,308
833.876831,313
833.995056,335
834.113281,308
834.231628,321
834.349915,328
834.468201,316
834.586426,311
834.704651,314
834.822998,313
834.941162,312
835.059448,306
835.177673,324
835.295959,296
835.414246,316
835.53241,321
835.650635,332
835.768921,311
835.887146,329
836.005371,296
836.123596,308
836.241821,306
836.360046,313
836.478271,304
836.596497,308
836.714722,318
836.832886,317
836.95105,313
837.069336,320
837.1875,313
837.305725,319
837.423889,305
837.542053,324
837.660339,317
837.778503,314
837.896667,311
838.014832,315
838.132996,311
838.25116,317
838.369385,321
838.487488,314
838.605713,325
838.723877,316
838.84198,309
838.960205,312
839.078308,331
839.196472,315
839.314636,312
839.4328,317
839.550964,301
839.669067,319
839.787231,317
839.905396,312
840.023499,323
840.141602,326
840.259766,311
840.377869,316
840.495972,319
840.614136,311
840.732239,306
840.850342,308
840.968445,319
841.086548,314
841.204651,307
841.322754,315
841.440918,315
841.55896,321
841.677002,318
841.795166,315
841.913208,321
842.031311,303
842.149353,319
842.267456,315
842.385498,306
842.503601,319
842.621643,312
842.739746,314
842.857788,321
842.97583,318
843.093933,307
843.211975,314
843.330017,313
843.44812,322
843.566101,315
843.684204,318
843.802246,297
843.920227,323
844.038269,316
844.156311,315
844.274292,316
844.392395,320
844.510376,318
844.628357,317
844.74646,317
844.864441,312
844.982422,319
845.100403,317
845.218384,313
845.336426,317
845.454468,316
845.572449,331
845.69043,312
845.808411,309
845.926453,312
846.044373,316
846.162354,306
846.280396,317
846.398315,311
846.516296,313
846.634216,305
846.752197,304
846.870178,323
846.988098,309
847.106079,323
847.22406,316
847.34198,318
847.4599,324
847.577881,304
847.695801,309
847.813782,332
847.931641,314
848.049561,325
848.167603,319
848.285461,311
848.403381,323
848.521362,307
848.639221,311
848.75708,319
848.875,306
848.99292,317
849.110901,308
849.22876,299
849.34668,322
849.464539,311
849.582458,322
849.700317,304
849.818176,325
849.936096,313
850.053955,316
850.171875,318
850.289673,322
850.407593,313
850.525452,319
850.643311,316
850.761169,314
850.878967,311
850.996887,306
851.114746,315
851.232544,320
851.350403,316
851.468262,315
851.58606,309
851.703979,308
851.821777,331
851.939636,320
852.057434,315
852.175232,300
852.293091,315
852.410889,317
852.528687,302
852.646545,327
852.764343,307
852.88208,322
852.999939,312
853.117676,335
853.235535,318
853.353271,309
853.471069,319
853.588928,313
853.706604,319
853.824402,318
853.9422,315
854.059998,317
854.177734,304
854.295532,323
854.413269,317
854.531006,312
854.648804,308
854.766541,332
854.884277,309
855.002014,307
855.119751,306
855.237549,324
855.355225,314
855.473022,319
855.590698,297
855.708435,315
855.826172,302
855.943848,315
856.061646,317
856.179321,321
856.296997,321
856.414795,317
856.53241,309
856.650085,312
856.767822,311
856.885559,322
857.003174,302
857.120911,311
857.238586,322
857.356201,321
857.473938,328
857.591614,316
857.709351,326
857.826965,308
857.944641,308
858.062317,318
858.179993,311
858.297668,318
858.415283,318
858.532959,316
858.650574,313
858.768188,314
858.885803,307
859.003479,326
859.121094,310
859.23877,322
859.356384,308
859.473999,320
859.591675,315
859.709229,317
859.826843,311
859.944458,316
860.062012,313
860.179626,314
860.297302,302
860.414856,323
860.532471,314
860.650024,315
860.767639,314
860.885193,315
861.002808,319
861.120361,314
861.237976,314
861.35553,321
861.473022,324
861.590698,332
861.708191,314
861.825745,318
861.943298,312
862.060852,318
862.178406,313
862.295959,326
862.413513,316
862.531006,326
862.64856,315
862.766113,329
862.883667,315
863.00116,307
863.118713,316
863.236206,316
863.353699,318
863.471252,315
863.588745,304
863.706177,328
863.82373,313
863.941162,318
864.058716,314
864.176208,325
864.29364,319
864.411194,315
864.528687,314
864.646118,324
864.763611,326
864.881042,319
864.998535,315
865.116028,316
865.233459,302
865.350891,307
865.468384,325
865.585754,320
865.703308,316
865.820679,316
865.938171,309
866.055542,340
866.173035,307
866.290466,325
866.407837,302
866.52533,319
866.6427,308
866.760071,320
866.877563,317
866.994934,322
867.112305,311
867.229736,327
867.347107,313
867.464539,327
867.58197,323
867.699341,311
867.81665,305
867.934082,324
868.051453,314
868.168823,324
868.286194,319
868.403564,310
868.520935,311
868.638306,315
868.755676,327
868.872986,307
868.990295,319
869.107727,314
869.225037,310
869.342346,315
869.459717,310
869.577026,317
869.694336,316
869.811707,319
869.929016,312
870.046326,319
870.163635,312
870.280945,316
870.398254,313
870.515564,309
870.632812,311
870.750183,315
870.867432,311
870.984741,312
871.102051,305
871.219299,329
871.336609,306
871.453918,317
871.571106,311
871.688416,314
871.805664,320
871.922852,327
872.040222,298
872.157471,323
872.274719,306
872.391968,314
872.509155,313
872.626465,326
872.743652,315
872.860962,312
872.978149,308
873.095337,322
873.212646,315
873.329834,317
873.44696,313
873.564209,306
873.681396,310
873.798645,331
873.915894,318
874.03302,316
874.150208,312
874.267456,311
874.384583,319
874.501831,327
874.618958,314
874.736145,311
874.853333,307
874.970459,308
875.087646,313
875.204834,319
875.32196,306
875.439148,320
875.556274,320
875.673401,329
875.790527,309
875.907715,320
876.024841,321
876.141968,318
876.259094,331
876.376282,330
876.493347,315
876.610474,311
876.7276,299
876.844727,325
876.961853,303
877.078918,313
877.195984,305
877.313171,322
877.430237,309
877.547302,322
877.664368,311
877.781433,311
877.898499,322
878.015625,315
878.13269,307
878.249695,319
878.366821,314
878.483887,313
878.600952,313
878.717957,303
878.834961,316
878.952087,315
879.069092,310
879.186157,324
879.303162,321
879.420227,303
879.537231,312
879.654236,325
879.77124,302
879.888306,314
880.005249,299
880.122314,320
880.239319,315
880.356323,313
880.473328,328
880.590271,312
880.707275,304
880.824341,314
880.941284,305
881.058228,310
881.175232,299
881.292236,315
881.40918,301
881.526123,332
881.643066,316
881.760071,308
881.877014,308
881.993958,325
882.11084,326
882.227783,322
882.344727,322
882.46167,319
882.578613,311
882.695618,333
882.812439,307
882.929382,311
883.046326,310
883.163208,324
883.280151,312
883.397034,331
883.513916,310
883.630798,325
883.747742,318
883.864563,327
883.981506,324
884.098389,316
884.21521,313
884.332153,323
884.448975,327
884.565796,309
884.682678,306
884.7995,312
884.916443,313
885.033264,322
885.150085,314
885.266968,298
885.383789,310
885.500671,324
885.617493,304
885.734314,318
885.851196,305
885.967896,307
886.084717,315
886.201599,321
886.318359,303
886.435181,320
886.552002,306
886.668762,327
886.785645,319
886.902344,318
887.019165,327
887.135925,327
887.252747,310
887.369446,305
887.486267,307
887.603027,313
887.719788,313
887.836548,314
887.953247,323
888.070068,311
888.186829,302
888.303528,324
888.420288,306
888.536987,327
888.653687,315
888.770447,317
888.887146,309
889.003967,309
889.120667,311
889.237305,318
889.354065,304
889.470703,314
889.587463,312
889.704163,331
889.820862,312
889.937561,308
890.054199,312
890.170837,308
890.287598,316
890.404236,314
890.520874,317
890.637634,319
890.754211,304
890.87085,324
890.987549,312
891.104187,320
891.220886,311
891.337463,319
891.454102,333
891.57074,331
891.687378,291
891.804077,323
891.920654,302
892.037231,310
892.15387,306
892.270447,317
892.387085,321
892.503723,325
892.6203,323
892.736877,316
892.853516,307
892.970032,318
893.08667,312
893.203186,313
893.319763,322
893.43634,321
893.552917,316
893.669556,317
893.786011,314
893.902588,315
894.019165,307
894.135681,329
894.252197,296
894.368835,327
894.485291,318
894.601868,314
894.718384,318
894.8349,310
894.951355,305
895.067932,313
895.184448,327
895.300964,310
895.417419,305
895.533936,323
895.650452,319
895.766907,312
895.883423,318
895.999878,312
896.116333,314
896.232849,306
896.349304,306
896.465759,323
896.582214,311
896.698669,315
896.815125,312
896.931641,332
897.048035,306
897.164551,321
897.280884,317
897.397339,325
897.513794,308
897.630249,328
897.746582,318
897.863098,328
897.979431,312
898.095886,315
898.212341,313
898.328674,319
898.445129,313
898.561462,318
898.677795,310
898.794312,339
898.910645,308
899.026978,325
899.143433,313
899.259766,324
899.37616,302
899.492493,319
899.608765,310
899.725159,326
899.841553,327
899.957947,312
900.07428,321
900.190552,330
900.306946,313
900.423157,313
900.53949,316
900.655884,328
900.772156,319
900.888489,320
901.004822,312
901.121033,338
901.237366,304
901.353699,318
901.46991,312
901.586304,328
901.702515,308
901.818787,315
901.93512,312
902.051331,300
902.167603,305
902.283875,303
902.400085,305
902.516418,334
902.632629,318
902.74884,316
902.865112,302
902.981384,306
903.097595,310
903.213867,323
903.330017,302
903.446289,321
903.5625,322
903.67865,328
903.794922,317
903.911072,323
904.027344,313
904.143494,306
904.259705,308
904.375916,310
904.492065,306
904.608215,314
904.724426,311
904.840576,320
904.956726,319
905.072876,313
905.189087,322
905.305176,317
905.421387,320
905.537537,313
905.653687,295
905.769775,324
905.885925,304
906.002014,324
906.118164,313
906.234314,323
906.350403,310
906.466492,325
906.582642,328
906.69873,306
906.814758,317
906.930908,321
907.046936,313
907.163086,340
907.279175,309
907.395264,315
907.511353,321
907.62738,312
907.743408,316
907.859497,326
907.975525,308
908.091553,312
908.207703,301
908.32373,315
908.439758,317
908.555786,318
908.671814,315
908.787842,317
908.90387,306
909.019775,333
909.135864,324
909.251892,321
909.367859,303
909.483826,312
909.599854,329
909.715881,311
909.831848,312
909.947815,320
910.063782,307
910.179749,316
910.295776,316
910.411743,316
910.527649,310
910.643616,321
910.759583,319
910.875488,317
910.991455,320
911.107361,317
911.223267,307
911.339294,322
911.4552,316
911.571106,332
911.687073,306
911.802979,320
911.918823,303
912.034729,320
912.150635,311
912.266602,320
912.382446,317
912.498352,310
912.614197,315
912.730103,330
912.846008,307
792.44574,305
792.56488,353
792.68396,385
792.80304,370
792.92218,318
793.041199,322
793.160339,304
793.279419,330
793.398499,328
793.517578,297
793.636658,317
793.755737,331
793.874817,341
793.993896,333
794.112976,327
794.232056,319
794.351074,314
794.470215,323
794.589233,322
794.708313,317
794.827393,320
794.946411,314
795.065552,323
795.18457,318
795.303589,328
795.422668,332
795.541687,314
795.660767,324
795.779846,323
795.898865,331
796.017883,310
796.136963,327
796.255981,314
796.375061,337
796.49408,312
796.613037,315
796.732117,321
796.851135,327
796.970154,336
797.089233,317
797.208191,330
797.327271,314
797.446228,327
797.565186,323
797.684265,325
797.803223,325
797.922241,324
798.04126,308
798.160278,324
798.279297,310
798.398315,328
798.517273,322
798.636292,327
798.75531,329
798.874268,314
798.993286,330
799.112244,325
799.231323,317
799.350281,319
799.469238,318
799.588257,314
799.707153,318
799.826111,320
799.945129,321
800.064087,328
800.183044,313
800.302063,322
800.421021,321
800.539978,326
800.658936,307
800.777893,332
800.896912,330
801.015747,312
801.134705,317
801.253723,331
801.37262,329
801.491638,325
801.610535,321
801.729492,332
801.84845,320
801.967407,325
802.086243,321
802.205261,322
802.324158,305
802.443115,318
802.562073,321
802.680969,330
802.799927,319
802.918762,325
803.037659,328
803.156677,319
803.275574,321
803.39447,314
803.513428,316
803.632263,323
803.751221,318
803.870117,318
803.989014,315
804.107971,320
804.226746,319
804.345642,311
804.4646,328
804.583496,321
804.702393,333
804.821228,322
804.940125,325
805.059021,309
805.177917,333
805.296814,326
805.415649,332
805.534546,311
805.653442,314
805.772278,311
805.891113,322
806.01001,311
806.128906,318
806.247742,316
806.366577,330
806.485413,312
806.604309,325
806.723145,313
806.84198,306
806.960876,323
807.079712,320
807.198486,327
807.317383,328
807.436218,321
807.554993,321
807.673889,336
807.792725,312
807.91156,315
808.030396,324
808.14917,314
808.268005,319
808.386841,315
808.505676,328
808.624451,319
808.743286,320
808.862122,320
808.980896,314
809.099731,323
809.218506,322
809.337341,329
809.456116,338
809.57489,315
809.693726,327
809.8125,313
809.931274,318
810.050049,316
810.168884,314
810.287659,317
810.406372,321
810.525269,317
810.643982,317
810.762756,325
810.881531,327
811.000305,323
811.11908,324
811.237854,310
811.356567,320
811.475403,319
811.594116,310
811.71283,321
811.831604,319
811.950378,327
812.069153,307
812.187927,323
812.30658,331
812.425415,318
812.544128,337
812.662781,323
812.781616,316
812.900269,319
813.019043,325
813.137756,322
813.256531,333
813.375244,306
813.493896,326
813.612671,315
813.731384,326
813.850037,330
813.96875,325
814.087524,325
814.206238,335
814.324951,315
814.443604,310
814.562256,322
814.68103,317
814.799683,326
814.918335,325
815.037109,332
815.155762,309
815.274475,312
815.393188,321
815.511841,315
815.630554,323
815.749146,321
815.867859,330
815.986572,319
816.105164,318
816.223877,317
816.342529,319
816.461182,319
816.579895,326
816.698486,325
816.817139,316
816.935791,307
817.054504,328
817.173096,323
817.291748,310
817.4104,315
817.529053,315
817.647644,309
817.766235,315
817.884949,320
818.00354,317
818.122192,303
818.240845,326
818.359436,323
818.478088,315
818.59668,313
818.715271,332
818.833923,309
818.952515,322
819.071106,318
819.189758,315
819.30835,326
819.426941,307
819.545532,326
819.664124,315
819.782715,314
819.901306,336
820.019897,317
820.138489,314
820.25708,316
820.375671,329
820.494202,315
820.612732,326
820.731384,319
820.849915,326
820.968506,305
821.087097,319
821.205627,320
821.324158,320
821.442749,325
821.561279,324
821.679871,313
821.798401,321
821.916931,327
822.035461,313
822.154053,308
822.272583,324
822.391174,322
822.509583,319
822.628174,314
822.746704,328
822.865234,321
822.983765,322
823.102295,320
823.220825,319
823.339294,304
823.457825,326
823.576355,310
823.694824,318
823.813354,326
823.931885,321
824.050354,315
824.168884,322
824.287354,305
824.405823,334
824.524353,308
824.642822,323
824.761353,320
824.879822,326
824.998291,304
825.116699,310
825.235291,313
825.353699,312
825.472168,315
825.590637,320
825.709106,307
825.827576,311
825.946045,308
826.064453,310
826.182983,326
826.301392,310
826.4198,315
826.53833,309
826.656738,329
826.775208,310
826.893677,318
827.012024,309
827.130493,311
827.248962,321
827.36731,327
827.485779,316
827.604248,323
827.722595,319
827.841064,313
827.959412,324
828.077942,318
828.196289,325
828.314636,321
828.433105,321
828.551514,310
828.669861,315
828.78833,318
828.906677,314
829.025085,331
829.143433,315
829.261841,307
829.38031,321
829.498657,323
829.617004,309
829.735413,313
829.85376,318
829.972107,313
830.090515,322
830.208862,331
830.327209,313
830.445557,323
830.563904,312
830.682312,313
830.800659,329
830.919006,311
831.037354,323
831.155701,329
831.274048,331
831.392395,331
831.51062,305
831.629028,324
831.747314,321
831.865662,315
831.984009,307
832.102356,329
832.220642,325
832.338928,312
832.457275,305
832.575623,317
832.693909,312
832.812134,318
832.930481,317
833.048828,308
833.167114,321
833.2854,319
833.403687,312
833.521973,317
833.640259,319
833.758545,317
833.876831,325
833.995056,318
834.113281,318
834.231628,319
834.349915,320
834.468201,314
834.586426,311
834.704651,317
834.822998,316
834.941162,319
835.059448,302
835.177673,325
835.295959,308
835.414246,311
835.53241,318
835.650635,299
835.768921,323
835.887146,314
836.005371,322
836.123596,313
836.241821,312
836.360046,318
836.478271,311
836.596497,307
836.714722,323
836.832886,303
836.95105,315
837.069336,311
837.1875,308
837.305725,317
837.423889,309
837.542053,321
837.660339,320
837.778503,318
837.896667,326
838.014832,314
838.132996,325
838.25116,308
838.369385,314
838.487488,315
838.605713,324
838.723877,310
838.84198,318
838.960205,324
839.078308,311
839.196472,310
839.314636,301
839.4328,319
839.550964,318
839.669067,308
839.787231,325
839.905396,325
840.023499,303
840.141602,318
840.259766,325
840.377869,309
840.495972,329
840.614136,318
840.732239,321
840.850342,325
840.968445,318
841.086548,320
841.204651,328
841.322754,324
841.440918,332
841.55896,322
841.677002,319
841.795166,330
841.913208,310
842.031311,319
842.149353,318
842.267456,318
842.385498,325
842.503601,314
842.621643,327
842.739746,316
842.857788,310
842.97583,320
843.093933,316
843.211975,325
843.330017,320
843.44812,322
843.566101,317
843.684204,316
843.802246,323
843.920227,314
844.038269,318
844.156311,304
844.274292,330
844.392395,324
844.510376,314
844.628357,310
844.74646,306
844.864441,321
844.982422,319
845.100403,320
845.218384,316
845.336426,323
845.454468,310
845.572449,317
845.69043,317
845.808411,316
845.926453,319
846.044373,312
846.162354,323
846.280396,327
846.398315,310
846.516296,316
846.634216,317
846.752197,326
846.870178,310
846.988098,330
847.106079,327
847.22406,305
847.34198,305
847.4599,318
847.577881,311
847.695801,309
847.813782,300
847.931641,326
848.049561,313
848.167603,316
848.285461,313
848.403381,314
848.521362,312
848.639221,319
848.75708,327
848.875,314
848.99292,309
849.110901,320
849.22876,317
849.34668,311
849.464539,312
849.582458,322
849.700317,323
849.818176,316
849.936096,316
850.053955,306
850.171875,310
850.289673,310
850.407593,311
850.525452,314
850.643311,322
850.761169,305
850.878967,333
850.996887,318
851.114746,321
851.232544,324
851.350403,311
851.468262,324
851.58606,312
851.703979,312
851.821777,315
851.939636,309
852.057434,318
852.175232,312
852.293091,327
852.410889,322
852.528687,315
852.646545,315
852.764343,303
852.88208,319
852.999939,326
853.117676,296
853.235535,317
853.353271,320
853.471069,328
853.588928,330
853.706604,319
853.824402,312
853.9422,320
854.059998,315
854.177734,318
854.295532,304
854.413269,323
854.531006,324
854.648804,337
854.766541,304
854.884277,329
855.002014,311
855.119751,318
855.237549,316
855.355225,310
855.473022,325
855.590698,321
855.708435,318
855.826172,324
855.943848,321
856.061646,307
856.179321,309
856.296997,324
856.414795,310
856.53241,310
856.650085,305
856.767822,328
856.885559,317
857.003174,306
857.120911,307
857.238586,327
857.356201,321
857.473938,321
857.591614,332
857.709351,320
857.826965,320
857.944641,321
858.062317,312
858.179993,325
858.297668,310
858.415283,312
858.532959,313
858.650574,311
858.768188,322
858.885803,322
859.003479,328
859.121094,315
859.23877,311
859.356384,322
859.473999,325
859.591675,314
859.709229,321
859.826843,320
859.944458,313
860.062012,323
860.179626,316
860.297302,321
860.414856,314
860.532471,321
860.650024,311
860.767639,317
860.885193,298
861.002808,328
861.120361,313
861.237976,321
861.35553,317
861.473022,330
861.590698,330
861.708191,311
861.825745,323
861.943298,323
862.060852,324
862.178406,325
862.295959,310
862.413513,311
862.531006,313
862.64856,326
862.766113,304
862.883667,314
863.00116,317
863.118713,310
863.236206,317
863.353699,315
863.471252,306
863.588745,307
863.706177,310
863.82373,319
863.941162,314
864.058716,314
864.176208,311
864.29364,326
864.411194,323
864.528687,310
864.646118,316
864.763611,312
864.881042,309
864.998535,316
865.116028,311
865.233459,315
865.350891,321
865.468384,324
865.585754,310
865.703308,319
865.820679,313
865.938171,319
866.055542,314
866.173035,315
866.290466,317
866.407837,314
866.52533,310
866.6427,334
866.760071,313
866.877563,313
866.994934,313
867.112305,312
867.229736,309
867.347107,321
867.464539,316
867.58197,310
867.699341,324
867.81665,320
867.934082,308
868.051453,327
868.168823,325
868.286194,326
868.403564,325
868.520935,313
868.638306,316
868.755676,313
868.872986,315
868.990295,324
869.107727,315
869.225037,340
869.342346,313
869.459717,330
869.577026,321
869.694336,316
869.811707,316
869.929016,318
870.046326,312
870.163635,310
870.280945,314
870.398254,318
870.515564,313
870.632812,299
870.750183,307
870.867432,315
870.984741,319
871.102051,322
871.219299,325
871.336609,325
871.453918,313
871.571106,323
871.688416,309
871.805664,335
871.922852,308
872.040222,325
872.157471,323
872.274719,309
872.391968,322
872.509155,315
872.626465,321
872.743652,311
872.860962,325
872.978149,307
873.095337,320
873.212646,329
873.329834,304
873.44696,320
873.564209,316
873.681396,304
873.798645,326
873.915894,320
874.03302,310
874.150208,328
874.267456,313
874.384583,320
874.501831,317
874.618958,305
874.736145,307
874.853333,320
874.970459,316
875.087646,323
875.204834,304
875.32196,317
875.439148,313
875.556274,329
875.673401,309
875.790527,318
875.907715,322
876.024841,312
876.141968,312
876.259094,309
876.376282,315
876.493347,312
876.610474,307
876.7276,328
876.844727,314
876.961853,320
877.078918,312
877.195984,326
877.313171,320
877.430237,317
877.547302,311
877.664368,325
877.781433,318
877.898499,330
878.015625,298
878.13269,333
878.249695,315
878.366821,313
878.483887,311
878.600952,305
878.717957,325
878.834961,327
878.952087,314
879.069092,324
879.186157,309
879.303162,320
879.420227,320
879.537231,308
879.654236,317
879.77124,305
879.888306,306
880.005249,314
880.122314,307
880.239319,307
880.356323,311
880.473328,320
880.590271,307
880.707275,318
880.824341,320
880.941284,336
881.058228,305
881.175232,311
881.292236,302
881.40918,328
881.526123,317
881.643066,319
881.760071,314
881.877014,324
881.993958,318
882.11084,316
882.227783,304
882.344727,321
882.46167,302
882.578613,332
882.695618,310
882.812439,324
882.929382,316
883.046326,317
883.163208,315
883.280151,308
883.397034,330
883.513916,317
883.630798,311
883.747742,323
883.864563,317
883.981506,319
884.098389,312
884.21521,318
884.332153,311
884.448975,336
884.565796,319
884.682678,323
884.7995,322
884.916443,329
885.033264,306
885.150085,314
885.266968,320
885.383789,319
885.500671,321
885.617493,320
885.734314,306
885.851196,310
885.967896,310
886.084717,309
886.201599,314
886.318359,313
886.435181,326
886.552002,310
886.668762,316
886.785645,315
886.902344,310
887.019165,307
887.135925,318
887.252747,321
887.369446,316
887.486267,321
887.603027,315
887.719788,320
887.836548,310
887.953247,311
888.070068,319
888.186829,320
888.303528,318
888.420288,318
888.536987,312
888.653687,322
888.770447,315
888.887146,323
889.003967,316
889.120667,322
889.237305,310
889.354065,306
889.470703,315
889.587463,323
889.704163,307
889.820862,297
889.937561,306
890.054199,320
890.170837,310
890.287598,326
890.404236,309
890.520874,318
890.637634,311
890.754211,313
890.87085,314
890.987549,324
891.104187,320
891.220886,326
891.337463,322
891.454102,303
891.57074,305
891.687378,319
891.804077,314
891.920654,309
892.037231,315
892.15387,325
892.270447,325
892.387085,318
892.503723,327
892.6203,322
892.736877,321
892.853516,317
892.970032,312
893.08667,304
893.203186,304
893.319763,316
893.43634,322
893.552917,325
893.669556,318
893.786011,316
893.902588,311
894.019165,310
894.135681,317
894.252197,314
894.368835,322
894.485291,318
894.601868,314
894.718384,312
894.8349,305
894.951355,318
895.067932,313
895.184448,324
895.300964,308
895.417419,312
895.533936,323
895.650452,314
895.766907,320
895.883423,322
895.999878,321
896.116333,314
896.232849,330
896.349304,321
896.465759,305
896.582214,335
896.698669,323
896.815125,318
896.931641,317
897.048035,317
897.164551,324
897.280884,318
897.397339,318
897.513794,325
897.630249,315
897.746582,322
897.863098,311
897.979431,316
898.095886,327
898.212341,315
898.328674,297
898.445129,309
898.561462,319
898.677795,315
898.794312,327
898.910645,319
899.026978,317
899.143433,312
899.259766,314
899.37616,315
899.492493,311
899.608765,317
899.725159,317
899.841553,301
899.957947,333
900.07428,309
900.190552,316
900.306946,314
900.423157,314
900.53949,318
900.655884,323
900.772156,327
900.888489,316
901.004822,314
901.121033,316
901.237366,315
901.353699,307
901.46991,315
901.586304,330
901.702515,316
901.818787,318
901.93512,321
902.051331,301
902.167603,314
902.283875,316
902.400085,336
902.516418,306
902.632629,319
902.74884,324
902.865112,321
902.981384,310
903.097595,310
903.213867,326
903.330017,326
903.446289,312
903.5625,309
903.67865,304
903.794922,326
903.911072,316
904.027344,320
904.143494,322
904.259705,317
904.375916,320
904.492065,332
904.608215,325
904.724426,309
904.840576,332
904.956726,313
905.072876,316
905.189087,325
905.305176,311
905.421387,309
905.537537,314
905.653687,311
905.769775,307
905.885925,316
906.002014,314
906.118164,326
906.234314,327
906.350403,314
906.466492,331
906.582642,318
906.69873,318
906.814758,321
906.930908,316
907.046936,323
907.163086,317
907.279175,328
907.395264,311
907.511353,315
907.62738,322
907.743408,323
907.859497,322
907.975525,313
908.091553,325
908.207703,328
908.32373,315
908.439758,312
908.555786,312
908.671814,312
908.787842,331
908.90387,309
909.019775,305
909.135864,317
909.251892,319
909.367859,328
909.483826,315
909.599854,314
909.715881,315
909.831848,314
909.947815,318
910.063782,308
910.179749,313
910.295776,329
910.411743,316
910.527649,305
910.643616,310
910.759583,305
910.875488,323
910.991455,319
911.107361,312
911.223267,313
911.339294,311
911.4552,318
911.571106,318
911.687073,308
911.802979,322
911.918823,317
912.034729,312
912.150635,305
912.266602,315
912.382446,322
912.498352,315
912.614197,322
912.730103,300
912.846008,326
