792.44574,314
792.56488,359
792.68396,399
792.80304,380
792.92218,348
793.041199,323
793.160339,320
793.279419,330
793.398499,339
793.517578,311
793.636658,313
793.755737,340
793.874817,355
793.993896,343
794.112976,335
794.232056,326
794.351074,342
794.470215,320
794.589233,332
794.708313,324
794.827393,330
794.946411,344
795.065552,338
795.18457,320
795.303589,334
795.422668,328
795.541687,326
795.660767,314
795.779846,339
795.898865,317
796.017883,323
796.136963,319
796.255981,342
796.375061,336
796.49408,323
796.613037,326
796.732117,325
796.851135,317
796.970154,325
797.089233,317
797.208191,326
797.327271,327
797.446228,326
797.565186,332
797.684265,321
797.803223,327
797.922241,322
798.04126,314
798.160278,334
798.279297,316
798.398315,333
798.517273,324
798.636292,323
798.75531,322
798.874268,323
798.993286,316
799.112244,329
799.231323,327
799.350281,326
799.469238,310
799.588257,332
799.707153,313
799.826111,328
799.945129,315
800.064087,327
800.183044,325
800.302063,326
800.421021,324
800.539978,317
800.658936,310
800.777893,320
800.896912,318
801.015747,315
801.134705,326
801.253723,321
801.37262,318
801.491638,320
801.610535,329
801.729492,338
801.84845,317
801.967407,330
802.086243,325
802.205261,320
802.324158,323
802.443115,317
802.562073,316
802.680969,314
802.799927,333
802.918762,316
803.037659,324
803.156677,335
803.275574,319
803.39447,334
803.513428,311
803.632263,342
803.751221,321
803.870117,321
803.989014,316
804.107971,343
804.226746,320
804.345642,323
804.4646,324
804.583496,323
804.702393,323
804.821228,321
804.940125,314
805.059021,317
805.177917,329
805.296814,316
805.415649,326
805.534546,320
805.653442,322
805.772278,317
805.891113,325
806.01001,327
806.128906,317
806.247742,318
806.366577,324
806.485413,330
806.604309,321
806.723145,322
806.84198,329
806.960876,324
807.079712,330
807.198486,323
807.317383,315
807.436218,325
807.554993,320
807.673889,317
807.792725,322
807.91156,320
808.030396,320
808.14917,322
808.268005,316
808.386841,321
808.505676,311
808.624451,327
808.743286,331
808.862122,330
808.980896,321
809.099731,326
809.218506,313
809.337341,322
809.456116,327
809.57489,321
809.693726,320
809.8125,336
809.931274,320
810.050049,330
810.168884,330
810.287659,316
810.406372,325
810.525269,332
810.643982,321
810.762756,313
810.881531,330
811.000305,314
811.11908,327
811.237854,320
811.356567,309
811.475403,325
811.594116,314
811.71283,322
811.831604,318
811.950378,313
812.069153,325
812.187927,326
812.30658,298
812.425415,323
812.544128,317
812.662781,331
812.781616,317
812.900269,331
813.019043,312
813.137756,324
813.256531,328
813.375244,324
813.493896,311
813.612671,316
813.731384,305
813.850037,334
813.96875,314
814.087524,340
814.206238,318
814.324951,320
814.443604,318
814.562256,318
814.68103,325
814.799683,313
814.918335,316
815.037109,331
815.155762,316
815.274475,324
815.393188,317
815.511841,326
815.630554,326
815.749146,309
815.867859,325
815.986572,315
816.105164,305
816.223877,316
816.342529,314
816.461182,313
816.579895,334
816.698486,317
816.817139,313
816.935791,324
817.054504,323
817.173096,317
817.291748,327
817.4104,332
817.529053,315
817.647644,330
817.766235,316
817.884949,315
818.00354,316
818.122192,309
818.240845,317
818.359436,316
818.478088,312
818.59668,321
818.715271,316
818.833923,314
818.952515,325
819.071106,312
819.189758,309
819.30835,330
819.426941,309
819.545532,319
819.664124,316
819.782715,313
819.901306,300
820.019897,318
820.138489,323
820.25708,318
820.375671,306
820.494202,320
820.612732,310
820.731384,321
820.849915,311
820.968506,323
821.087097,307
821.205627,326
821.324158,316
821.442749,335
821.561279,319
821.679871,326
821.798401,304
821.916931,320
822.035461,316
822.154053,302
822.272583,306
822.391174,314
822.509583,327
822.628174,327
822.746704,309
822.865234,317
822.983765,310
823.102295,327
823.220825,312
823.339294,304
823.457825,315
823.576355,317
823.694824,320
823.813354,319
823.931885,309
824.050354,309
824.168884,329
824.287354,315
824.405823,328
824.524353,322
824.642822,318
824.761353,323
824.879822,327
824.998291,331
825.116699,316
825.235291,316
825.353699,337
825.472168,319
825.590637,326
825.709106,330
825.827576,310
825.946045,319
826.064453,308
826.182983,310
826.301392,322
826.4198,326
826.53833,326
826.656738,319
826.775208,310
826.893677,315
827.012024,310
827.130493,317
827.248962,317
827.36731,300
827.485779,317
827.604248,317
827.722595,320
827.841064,323
827.959412,311
828.077942,312
828.196289,319
828.314636,310
828.433105,323
828.551514,312
828.669861,311
828.78833,325
828.906677,322
829.025085,307
829.143433,322
829.261841,319
829.38031,321
829.498657,330
829.617004,316
829.735413,326
829.85376,314
829.972107,305
830.090515,317
830.208862,320
830.327209,316
830.445557,326
830.563904,305
830.682312,316
830.800659,315
830.919006,321
831.037354,332
831.155701,305
831.274048,315
831.392395,322
831.51062,313
831.629028,319
831.747314,325
831.865662,328
831.984009,317
832.102356,306
832.220642,315
832.338928,317
832.457275,314
832.575623,333
832.693909,314
832.812134,306
832.930481,313
833.048828,311
833.167114,324
833.2854,308
833.403687,311
833.521973,314
833.640259,316
833.758545,310
833.876831,316
833.995056,314
834.113281,317
834.231628,324
834.349915,312
834.468201,326
834.586426,306
834.704651,320
834.822998,319
834.941162,318
835.059448,306
835.177673,318
835.295959,316
835.414246,323
835.53241,322
835.650635,332
835.768921,311
835.887146,327
836.005371,324
836.123596,313
836.241821,336
836.360046,318
836.478271,321
836.596497,322
836.714722,320
836.832886,325
836.95105,305
837.069336,332
837.1875,328
837.305725,320
837.423889,309
837.542053,306
837.660339,310
837.778503,308
837.896667,311
838.014832,306
838.132996,311
838.25116,302
838.369385,321
838.487488,321
838.605713,318
838.723877,337
838.84198,312
838.960205,334
839.078308,311
839.196472,301
839.314636,325
839.4328,327
839.550964,313
839.669067,325
839.787231,307
839.905396,325
840.023499,313
840.141602,323
840.259766,320
840.377869,307
840.495972,316
840.614136,326
840.732239,312
840.850342,321
840.968445,306
841.086548,319
841.204651,300
841.322754,330
841.440918,313
841.55896,331
841.677002,307
841.795166,317
841.913208,317
842.031311,330
842.149353,314
842.267456,316
842.385498,308
842.503601,316
842.621643,325
842.739746,317
842.857788,327
842.97583,313
843.093933,330
843.211975,314
843.330017,323
843.44812,311
843.566101,322
843.684204,329
843.802246,321
843.920227,320
844.038269,316
844.156311,300
844.274292,309
844.392395,316
844.510376,314
844.628357,308
844.74646,304
844.864441,323
844.982422,309
845.100403,313
845.218384,315
845.336426,312
845.454468,320
845.572449,330
845.69043,310
845.808411,328
845.926453,310
846.044373,323
846.162354,314
846.280396,319
846.398315,302
846.516296,323
846.634216,320
846.752197,328
846.870178,312
846.988098,312
847.106079,308
847.22406,317
847.34198,313
847.4599,310
847.577881,307
847.695801,328
847.813782,308
847.931641,306
848.049561,297
848.167603,319
848.285461,300
848.403381,322
848.521362,325
848.639221,307
848.75708,319
848.875,327
848.99292,325
849.110901,314
849.22876,317
849.34668,310
849.464539,309
849.582458,330
849.700317,311
849.818176,313
849.936096,313
850.053955,313
850.171875,321
850.289673,316
850.407593,318
850.525452,329
850.643311,313
850.761169,322
850.878967,316
850.996887,319
851.114746,315
851.232544,328
851.350403,331
851.468262,320
851.58606,308
851.703979,313
851.821777,305
851.939636,314
852.057434,327
852.175232,309
852.293091,319
852.410889,321
852.528687,317
852.646545,323
852.764343,309
852.88208,321
852.999939,310
853.117676,327
853.235535,305
853.353271,324
853.471069,313
853.588928,314
853.706604,313
853.824402,317
853.9422,305
854.059998,326
854.177734,313
854.295532,327
854.413269,317
854.531006,328
854.648804,317
854.766541,308
854.884277,314
855.002014,318
855.119751,307
855.237549,317
855.355225,313
855.473022,330
855.590698,321
855.708435,323
855.826172,316
855.943848,319
856.061646,324
856.179321,312
856.296997,316
856.414795,318
856.53241,313
856.650085,320
856.767822,303
856.885559,328
857.003174,307
857.120911,307
857.238586,310
857.356201,318
857.473938,326
857.591614,323
857.709351,311
857.826965,320
857.944641,311
858.062317,319
858.179993,321
858.297668,327
858.415283,312
858.532959,317
858.650574,313
858.768188,330
858.885803,312
859.003479,318
859.121094,313
859.23877,317
859.356384,315
859.473999,319
859.591675,312
859.709229,319
859.826843,309
859.944458,329
860.062012,318
860.179626,326
860.297302,307
860.414856,321
860.532471,323
860.650024,322
860.767639,323
860.885193,312
861.002808,308
861.120361,316
861.237976,318
861.35553,318
861.473022,328
861.590698,326
861.708191,310
861.825745,311
861.943298,321
862.060852,315
862.178406,306
862.295959,322
862.413513,320
862.531006,323
862.64856,306
862.766113,304
862.883667,324
863.00116,323
863.118713,306
863.236206,318
863.353699,311
863.471252,326
863.588745,308
863.706177,321
863.82373,316
863.941162,321
864.058716,318
864.176208,321
864.29364,310
864.411194,318
864.528687,323
864.646118,327
864.763611,325
864.881042,331
864.998535,304
865.116028,317
865.233459,312
865.350891,316
865.468384,325
865.585754,310
865.703308,318
865.820679,312
865.938171,311
866.055542,323
866.173035,313
866.290466,320
866.407837,312
866.52533,309
866.6427,316
866.760071,328
866.877563,321
866.994934,321
867.112305,293
867.229736,324
867.347107,313
867.464539,320
867.58197,324
867.699341,323
867.81665,324
867.934082,323
868.051453,319
868.168823,340
868.286194,312
868.403564,318
868.520935,317
868.638306,302
868.755676,311
868.872986,315
868.990295,298
869.107727,319
869.225037,301
869.342346,329
869.459717,314
869.577026,323
869.694336,315
869.811707,322
869.929016,310
870.046326,309
870.163635,313
870.280945,328
870.398254,315
870.515564,331
870.632812,308
870.750183,327
870.867432,320
870.984741,318
871.102051,311
871.219299,327
871.336609,325
871.453918,321
871.571106,318
871.688416,312
871.805664,309
871.922852,322
872.040222,328
872.157471,322
872.274719,323
872.391968,323
872.509155,324
872.626465,321
872.743652,321
872.860962,311
872.978149,323
873.095337,322
873.212646,324
873.329834,311
873.44696,316
873.564209,324
873.681396,324
873.798645,331
873.915894,312
874.03302,305
874.150208,317
874.267456,317
874.384583,303
874.501831,335
874.618958,323
874.736145,313
874.853333,310
874.970459,332
875.087646,317
875.204834,314
875.32196,321
875.439148,335
875.556274,318
875.673401,312
875.790527,304
875.907715,326
876.024841,314
876.141968,324
876.259094,314
876.376282,323
876.493347,321
876.610474,327
876.7276,317
876.844727,329
876.961853,315
877.078918,334
877.195984,310
877.313171,328
877.430237,307
877.547302,321
877.664368,316
877.781433,338
877.898499,316
878.015625,313
878.13269,327
878.249695,331
878.366821,305
878.483887,320
878.600952,315
878.717957,327
878.834961,328
878.952087,325
879.069092,332
879.186157,319
879.303162,299
879.420227,314
879.537231,322
879.654236,306
879.77124,312
879.888306,326
880.005249,314
880.122314,318
880.239319,325
880.356323,322
880.473328,315
880.590271,322
880.707275,312
880.824341,326
880.941284,315
881.058228,310
881.175232,313
881.292236,324
881.40918,329
881.526123,315
881.643066,316
881.760071,318
881.877014,313
881.993958,331
882.11084,315
882.227783,322
882.344727,320
882.46167,332
882.578613,312
882.695618,322
882.812439,317
882.929382,319
883.046326,321
883.163208,321
883.280151,317
883.397034,334
883.513916,302
883.630798,324
883.747742,315
883.864563,326
883.981506,313
884.098389,325
884.21521,316
884.332153,323
884.448975,320
884.565796,321
884.682678,327
884.7995,327
884.916443,307
885.033264,329
885.150085,320
885.266968,311
885.383789,323
885.500671,312
885.617493,319
885.734314,330
885.851196,325
885.967896,327
886.084717,314
886.201599,309
886.318359,312
886.435181,325
886.552002,322
886.668762,314
886.785645,309
886.902344,338
887.019165,318
887.135925,321
887.252747,320
887.369446,304
887.486267,307
887.603027,323
887.719788,325
887.836548,325
887.953247,309
888.070068,322
888.186829,300
888.303528,312
888.420288,306
888.536987,295
888.653687,314
888.770447,317
888.887146,322
889.003967,319
889.120667,316
889.237305,318
889.354065,303
889.470703,327
889.587463,295
889.704163,323
889.820862,299
889.937561,313
890.054199,303
890.170837,317
890.287598,315
890.404236,320
890.520874,318
890.637634,328
890.754211,306
890.87085,325
890.987549,331
891.104187,320
891.220886,316
891.337463,312
891.454102,314
891.57074,311
891.687378,292
891.804077,325
891.920654,322
892.037231,320
892.15387,315
892.270447,316
892.387085,329
892.503723,321
892.6203,316
892.736877,315
892.853516,321
892.970032,317
893.08667,323
893.203186,300
893.319763,308
893.43634,316
893.552917,330
893.669556,311
893.786011,308
893.902588,312
894.019165,323
894.135681,315
894.252197,308
894.368835,308
894.485291,313
894.601868,311
894.718384,310
894.8349,315
894.951355,313
895.067932,314
895.184448,308
895.300964,322
895.417419,307
895.533936,308
895.650452,312
895.766907,321
895.883423,325
895.999878,328
896.116333,306
896.232849,318
896.349304,317
896.465759,323
896.582214,309
896.698669,321
896.815125,315
896.931641,316
897.048035,311
897.164551,321
897.280884,324
897.397339,309
897.513794,316
897.630249,312
897.746582,307
897.863098,327
897.979431,311
898.095886,316
898.212341,314
898.328674,320
898.445129,315
898.561462,327
898.677795,293
898.794312,326
898.910645,318
899.026978,337
899.143433,311
899.259766,322
899.37616,321
899.492493,325
899.608765,319
899.725159,312
899.841553,315
899.957947,315
900.07428,319
900.190552,309
900.306946,316
900.423157,315
900.53949,323
900.655884,318
900.772156,310
900.888489,308
901.004822,314
901.121033,313
901.237366,321
901.353699,329
901.46991,320
901.586304,322
901.702515,321
901.818787,314
901.93512,316
902.051331,318
902.167603,309
902.283875,319
902.400085,320
902.516418,311
902.632629,317
902.74884,328
902.865112,314
902.981384,329
903.097595,313
903.213867,311
903.330017,311
903.446289,321
903.5625,313
903.67865,309
903.794922,328
903.911072,314
904.027344,307
904.143494,327
904.259705,319
904.375916,322
904.492065,313
904.608215,331
904.724426,303
904.840576,316
904.956726,305
905.072876,320
905.189087,316
905.305176,315
905.421387,318
905.537537,315
905.653687,316
905.769775,313
905.885925,321
906.002014,326
906.118164,309
906.234314,317
906.350403,316
906.466492,325
906.582642,303
906.69873,320
906.814758,318
906.930908,323
907.046936,322
907.163086,318
907.279175,318
907.395264,323
907.511353,314
907.62738,322
907.743408,316
907.859497,324
907.975525,321
908.091553,323
908.207703,310
908.32373,322
908.439758,306
908.555786,333
908.671814,327
908.787842,320
908.90387,330
909.019775,329
909.135864,323
909.251892,314
909.367859,322
909.483826,310
909.599854,314
909.715881,314
909.831848,322
909.947815,312
910.063782,312
910.179749,321
910.295776,314
910.411743,325
910.527649,305
910.643616,324
910.759583,311
910.875488,317
910.991455,308
911.107361,323
911.223267,308
911.339294,325
911.4552,313
911.571106,321
911.687073,308
911.802979,332
911.918823,311
912.034729,318
912.150635,312
912.266602,325
912.382446,317
912.498352,319
912.614197,324
912.730103,319
912.846008,319
792.44574,320
792.56488,348
792.68396,396
792.80304,390
792.92218,331
793.041199,321
793.160339,321
793.279419,336
793.398499,331
793.517578,310
793.636658,313
793.755737,340
793.874817,337
793.993896,338
794.112976,343
794.232056,334
794.351074,320
794.470215,345
794.589233,329
794.708313,321
794.827393,318
794.946411,327
795.065552,328
795.18457,339
795.303589,338
795.422668,327
795.541687,333
795.660767,319
795.779846,328
795.898865,340
796.017883,326
796.136963,327
796.255981,333
796.375061,324
796.49408,341
796.613037,318
796.732117,322
796.851135,319
796.970154,326
797.089233,340
797.208191,324
797.327271,326
797.446228,331
797.565186,315
797.684265,340
797.803223,317
797.922241,333
798.04126,320
798.160278,325
798.279297,320
798.398315,334
798.517273,330
798.636292,325
798.75531,327
798.874268,326
798.993286,325
799.112244,321
799.231323,330
799.350281,329
799.469238,327
799.588257,337
799.707153,331
799.826111,316
799.945129,321
800.064087,312
800.183044,341
800.302063,335
800.421021,318
800.539978,334
800.658936,315
800.777893,333
800.896912,313
801.015747,310
801.134705,325
801.253723,320
801.37262,317
801.491638,314
801.610535,329
801.729492,327
801.84845,337
801.967407,314
802.086243,326
802.205261,312
802.324158,332
802.443115,306
802.562073,318
802.680969,309
802.799927,333
802.918762,310
803.037659,325
803.156677,309
803.275574,306
803.39447,316
803.513428,334
803.632263,332
803.751221,320
803.870117,303
803.989014,335
804.107971,333
804.226746,313
804.345642,317
804.4646,324
804.583496,331
804.702393,323
804.821228,327
804.940125,306
805.059021,336
805.177917,325
805.296814,313
805.415649,327
805.534546,317
805.653442,314
805.772278,319
805.891113,335
806.01001,332
806.128906,318
806.247742,333
806.366577,317
806.485413,315
806.604309,326
806.723145,322
806.84198,316
806.960876,326
807.079712,322
807.198486,322
807.317383,308
807.436218,319
807.554993,332
807.673889,324
807.792725,327
807.91156,318
808.030396,321
808.14917,323
808.268005,323
808.386841,327
808.505676,315
808.624451,321
808.743286,312
808.862122,319
808.980896,326
809.099731,321
809.218506,309
809.337341,337
809.456116,325
809.57489,333
809.693726,316
809.8125,312
809.931274,330
810.050049,313
810.168884,326
810.287659,316
810.406372,326
810.525269,324
810.643982,316
810.762756,324
810.881531,303
811.000305,316
811.11908,327
811.237854,321
811.356567,306
811.475403,327
811.594116,312
811.71283,325
811.831604,339
811.950378,321
812.069153,321
812.187927,323
812.30658,312
812.425415,330
812.544128,320
812.662781,315
812.781616,337
812.900269,314
813.019043,328
813.137756,316
813.256531,331
813.375244,327
813.493896,335
813.612671,321
813.731384,292
813.850037,319
813.96875,324
814.087524,328
814.206238,326
814.324951,328
814.443604,307
814.562256,311
814.68103,329
814.799683,328
814.918335,317
815.037109,320
815.155762,326
815.274475,322
815.393188,328
815.511841,311
815.630554,306
815.749146,317
815.867859,317
815.986572,319
816.105164,342
816.223877,315
816.342529,316
816.461182,320
816.579895,317
816.698486,322
816.817139,319
816.935791,310
817.054504,322
817.173096,322
817.291748,314
817.4104,310
817.529053,312
817.647644,310
817.766235,326
817.884949,308
818.00354,329
818.122192,326
818.240845,315
818.359436,324
818.478088,320
818.59668,323
818.715271,313
818.833923,314
818.952515,331
819.071106,312
819.189758,320
819.30835,317
819.426941,317
819.545532,331
819.664124,318
819.782715,323
819.901306,325
820.019897,307
820.138489,328
820.25708,327
820.375671,327
820.494202,299
820.612732,315
820.731384,316
820.849915,321
820.968506,323
821.087097,332
821.205627,311
821.324158,311
821.442749,309
821.561279,316
821.679871,312
821.798401,321
821.916931,314
822.035461,319
822.154053,313
822.272583,335
822.391174,321
822.509583,311
822.628174,309
822.746704,313
822.865234,321
822.983765,308
823.102295,316
823.220825,325
823.339294,319
823.457825,320
823.576355,319
823.694824,320
823.813354,330
823.931885,320
824.050354,307
824.168884,322
824.287354,317
824.405823,309
824.524353,318
824.642822,324
824.761353,319
824.879822,321
824.998291,316
825.116699,324
825.235291,326
825.353699,314
825.472168,316
825.590637,325
825.709106,320
825.827576,321
825.946045,310
826.064453,321
826.182983,316
826.301392,319
826.4198,309
826.53833,323
826.656738,316
826.775208,325
826.893677,315
827.012024,324
827.130493,318
827.248962,336
827.36731,311
827.485779,310
827.604248,310
827.722595,319
827.841064,324
827.959412,314
828.077942,322
828.196289,323
828.314636,321
828.433105,318
828.551514,309
828.669861,318
828.78833,321
828.906677,321
829.025085,308
829.143433,324
829.261841,308
829.38031,315
829.498657,310
829.617004,331
829.735413,305
829.85376,307
829.972107,325
830.090515,308
830.208862,308
830.327209,317
830.445557,324
830.563904,310
830.682312,318
830.800659,313
830.919006,321
831.037354,308
831.155701,318
831.274048,326
831.392395,324
831.51062,326
831.629028,317
831.747314,321
831.865662,315
831.984009,319
832.102356,328
832.220642,307
832.338928,317
832.457275,317
832.575623,313
832.693909,314
832.812134,328
832.930481,303
833.048828,316
833.167114,331
833.2854,311
833.403687,325
833.521973,326
833.640259,325
833.758545,316
833.876831,308
833.995056,317
834.113281,321
834.231628,320
834.349915,310
834.468201,316
834.586426,312
834.704651,322
834.822998,324
834.941162,309
835.059448,322
835.177673,312
835.295959,315
835.414246,319
835.53241,326
835.650635,315
835.768921,311
835.887146,317
836.005371,309
836.123596,326
836.241821,309
836.360046,311
836.478271,310
836.596497,309
836.714722,317
836.832886,327
836.95105,319
837.069336,314
837.1875,328
837.305725,318
837.423889,307
837.542053,322
837.660339,321
837.778503,313
837.896667,329
838.014832,317
838.132996,325
838.25116,323
838.369385,310
838.487488,314
838.605713,318
838.723877,297
838.84198,314
838.960205,318
839.078308,319
839.196472,316
839.314636,316
839.4328,313
839.550964,315
839.669067,310
839.787231,317
839.905396,317
840.023499,323
840.141602,317
840.259766,313
840.377869,308
840.495972,319
840.614136,311
840.732239,312
840.850342,317
840.968445,315
841.086548,309
841.204651,315
841.322754,317
841.440918,317
841.55896,324
841.677002,311
841.795166,311
841.913208,323
842.031311,315
842.149353,313
842.267456,332
842.385498,318
842.503601,323
842.621643,312
842.739746,302
842.857788,312
842.97583,314
843.093933,324
843.211975,333
843.330017,319
843.44812,311
843.566101,315
843.684204,320
843.802246,319
843.920227,315
844.038269,329
844.156311,320
844.274292,304
844.392395,320
844.510376,330
844.628357,332
844.74646,322
844.864441,310
844.982422,323
845.100403,312
845.218384,324
845.336426,312
845.454468,322
845.572449,305
845.69043,314
845.808411,321
845.926453,313
846.044373,318
846.162354,314
846.280396,313
846.398315,321
846.516296,316
846.634216,310
846.752197,317
846.870178,319
846.988098,325
847.106079,321
847.22406,304
847.34198,321
847.4599,314
847.577881,310
847.695801,333
847.813782,315
847.931641,326
848.049561,313
848.167603,327
848.285461,301
848.403381,308
848.521362,310
848.639221,309
848.75708,335
848.875,314
848.99292,309
849.110901,306
849.22876,323
849.34668,314
849.464539,308
849.582458,318
849.700317,329
849.818176,319
849.936096,319
850.053955,326
850.171875,327
850.289673,314
850.407593,321
850.525452,310
850.643311,324
850.761169,314
850.878967,331
850.996887,309
851.114746,314
851.232544,313
851.350403,318
851.468262,313
851.58606,326
851.703979,298
851.821777,307
851.939636,301
852.057434,312
852.175232,330
852.293091,318
852.410889,326
852.528687,306
852.646545,327
852.764343,314
852.88208,322
852.999939,331
853.117676,310
853.235535,324
853.353271,320
853.471069,300
853.588928,310
853.706604,314
853.824402,309
853.9422,321
854.059998,312
854.177734,316
854.295532,314
854.413269,320
854.531006,329
854.648804,322
854.766541,317
854.884277,323
855.002014,307
855.119751,315
855.237549,324
855.355225,313
855.473022,322
855.590698,328
855.708435,327
855.826172,304
855.943848,318
856.061646,333
856.179321,321
856.296997,320
856.414795,310
856.53241,326
856.650085,313
856.767822,316
856.885559,306
857.003174,319
857.120911,310
857.238586,311
857.356201,304
857.473938,320
857.591614,308
857.709351,320
857.826965,319
857.944641,318
858.062317,309
858.179993,322
858.297668,317
858.415283,334
858.532959,313
858.650574,329
858.768188,308
858.885803,313
859.003479,328
859.121094,310
859.23877,329
859.356384,315
859.473999,324
859.591675,311
859.709229,321
859.826843,313
859.944458,315
860.062012,315
860.179626,326
860.297302,312
860.414856,316
860.532471,310
860.650024,320
860.767639,316
860.885193,310
861.002808,316
861.120361,309
861.237976,327
861.35553,312
861.473022,327
861.590698,318
861.708191,319
861.825745,319
861.943298,318
862.060852,322
862.178406,330
862.295959,312
862.413513,316
862.531006,309
862.64856,325
862.766113,320
862.883667,311
863.00116,316
863.118713,315
863.236206,306
863.353699,311
863.471252,318
863.588745,327
863.706177,314
863.82373,334
863.941162,319
864.058716,317
864.176208,302
864.29364,313
864.411194,326
864.528687,316
864.646118,321
864.763611,306
864.881042,313
864.998535,314
865.116028,317
865.233459,320
865.350891,316
865.468384,324
865.585754,319
865.703308,306
865.820679,304
865.938171,321
866.055542,313
866.173035,325
866.290466,331
866.407837,325
866.52533,325
866.6427,324
866.760071,320
866.877563,320
866.994934,315
867.112305,318
867.229736,304
867.347107,325
867.464539,303
867.58197,327
867.699341,309
867.81665,303
867.934082,329
868.051453,319
868.168823,299
868.286194,314
868.403564,319
868.520935,318
868.638306,316
868.755676,328
868.872986,313
868.990295,335
869.107727,308
869.225037,327
869.342346,310
869.459717,322
869.577026,330
869.694336,321
869.811707,309
869.929016,313
870.046326,324
870.163635,325
870.280945,307
870.398254,337
870.515564,308
870.632812,317
870.750183,315
870.867432,321
870.984741,321
871.102051,314
871.219299,312
871.336609,305
871.453918,316
871.571106,309
871.688416,315
871.805664,321
871.922852,309
872.040222,328
872.157471,320
872.274719,303
872.391968,315
872.509155,324
872.626465,325
872.743652,315
872.860962,317
872.978149,306
873.095337,303
873.212646,308
873.329834,317
873.44696,311
873.564209,320
873.681396,333
873.798645,315
873.915894,331
874.03302,308
874.150208,319
874.267456,323
874.384583,326
874.501831,314
874.618958,318
874.736145,329
874.853333,323
874.970459,311
875.087646,324
875.204834,320
875.32196,322
875.439148,315
875.556274,319
875.673401,309
875.790527,306
875.907715,316
876.024841,318
876.141968,317
876.259094,315
876.376282,313
876.493347,329
876.610474,321
876.7276,324
876.844727,305
876.961853,308
877.078918,317
877.195984,332
877.313171,313
877.430237,324
877.547302,325
877.664368,329
877.781433,309
877.898499,319
878.015625,319
878.13269,315
878.249695,322
878.366821,319
878.483887,319
878.600952,323
878.717957,309
878.834961,328
878.952087,310
879.069092,330
879.186157,319
879.303162,327
879.420227,318
879.537231,322
879.654236,318
879.77124,323
879.888306,316
880.005249,329
880.122314,320
880.239319,318
880.356323,305
880.473328,328
880.590271,325
880.707275,322
880.824341,321
880.941284,318
881.058228,318
881.175232,322
881.292236,308
881.40918,329
881.526123,319
881.643066,313
881.760071,313
881.877014,318
881.993958,316
882.11084,307
882.227783,309
882.344727,316
882.46167,315
882.578613,319
882.695618,333
882.812439,324
882.929382,327
883.046326,332
883.163208,320
883.280151,313
883.397034,318
883.513916,322
883.630798,322
883.747742,316
883.864563,316
883.981506,324
884.098389,321
884.21521,315
884.332153,322
884.448975,317
884.565796,306
884.682678,323
884.7995,316
884.916443,321
885.033264,318
885.150085,320
885.266968,309
885.383789,310
885.500671,321
885.617493,320
885.734314,329
885.851196,334
885.967896,307
886.084717,309
886.201599,313
886.318359,324
886.435181,315
886.552002,329
886.668762,336
886.785645,319
886.902344,315
887.019165,324
887.135925,309
887.252747,322
887.369446,329
887.486267,312
887.603027,311
887.719788,309
887.836548,323
887.953247,308
888.070068,312
888.186829,308
888.303528,306
888.420288,319
888.536987,308
888.653687,321
888.770447,317
888.887146,326
889.003967,307
889.120667,315
889.237305,322
889.354065,308
889.470703,320
889.587463,312
889.704163,309
889.820862,317
889.937561,300
890.054199,321
890.170837,318
890.287598,317
890.404236,322
890.520874,320
890.637634,314
890.754211,316
890.87085,315
890.987549,318
891.104187,313
891.220886,303
891.337463,324
891.454102,327
891.57074,309
891.687378,315
891.804077,308
891.920654,312
892.037231,330
892.15387,317
892.270447,310
892.387085,321
892.503723,311
892.6203,338
892.736877,308
892.853516,319
892.970032,319
893.08667,318
893.203186,309
893.319763,314
893.43634,322
893.552917,322
893.669556,329
893.786011,316
893.902588,310
894.019165,322
894.135681,310
894.252197,323
894.368835,324
894.485291,319
894.601868,315
894.718384,312
894.8349,313
894.951355,319
895.067932,316
895.184448,318
895.300964,308
895.417419,310
895.533936,307
895.650452,309
895.766907,315
895.883423,317
895.999878,325
896.116333,318
896.232849,325
896.349304,310
896.465759,320
896.582214,318
896.698669,317
896.815125,315
896.931641,315
897.048035,307
897.164551,329
897.280884,312
897.397339,303
897.513794,318
897.630249,315
897.746582,312
897.863098,323
897.979431,319
898.095886,320
898.212341,329
898.328674,316
898.445129,321
898.561462,314
898.677795,318
898.794312,318
898.910645,328
899.026978,318
899.143433,325
899.259766,315
899.37616,318
899.492493,321
899.608765,311
899.725159,302
899.841553,309
899.957947,318
900.07428,317
900.190552,320
900.306946,313
900.423157,330
900.53949,318
900.655884,312
900.772156,328
900.888489,307
901.004822,314
901.121033,310
901.237366,311
901.353699,325
901.46991,321
901.586304,308
901.702515,319
901.818787,319
901.93512,325
902.051331,313
902.167603,320
902.283875,318
902.400085,319
902.516418,313
902.632629,320
902.74884,317
902.865112,322
902.981384,321
903.097595,318
903.213867,309
903.330017,324
903.446289,318
903.5625,322
903.67865,317
903.794922,318
903.911072,326
904.027344,314
904.143494,315
904.259705,316
904.375916,292
904.492065,321
904.608215,318
904.724426,319
904.840576,330
904.956726,312
905.072876,316
905.189087,328
905.305176,320
905.421387,326
905.537537,314
905.653687,320
905.769775,318
905.885925,313
906.002014,306
906.118164,311
906.234314,319
906.350403,301
906.466492,317
906.582642,311
906.69873,315
906.814758,319
906.930908,306
907.046936,324
907.163086,319
907.279175,327
907.395264,319
907.511353,319
907.62738,313
907.743408,324
907.859497,323
907.975525,314
908.091553,316
908.207703,317
908.32373,311
908.439758,322
908.555786,314
908.671814,324
908.787842,326
908.90387,307
909.019775,310
909.135864,313
909.251892,314
909.367859,334
909.483826,314
909.599854,317
909.715881,324
909.831848,310
909.947815,311
910.063782,320
910.179749,309
910.295776,315
910.411743,319
910.527649,324
910.643616,323
910.759583,327
910.875488,326
910.991455,312
911.107361,320
911.223267,314
911.339294,304
911.4552,335
911.571106,317
911.687073,331
911.802979,322
911.918823,310
912.034729,322
912.150635,328
912.266602,320
912.382446,310
912.498352,312
912.614197,314
912.730103,308
912.846008,327
792.44574,307
792.56488,367
792.68396,406
792.80304,384
792.92218,333
793.041199,323
793.160339,326
793.279419,326
793.398499,326
793.517578,302
793.636658,327
793.755737,329
793.874817,342
793.993896,336
794.112976,337
794.232056,321
794.351074,327
794.470215,328
794.589233,327
794.708313,328
794.827393,324
794.946411,332
795.065552,339
795.18457,319
795.303589,336
795.422668,332
795.541687,340
795.660767,334
795.779846,323
795.898865,328
796.017883,324
796.136963,329
796.255981,341
796.375061,321
796.49408,338
796.613037,309
796.732117,341
796.851135,330
796.970154,317
797.089233,315
797.208191,335
797.327271,326
797.446228,326
797.565186,322
797.684265,334
797.803223,322
797.922241,329
798.04126,326
798.160278,318
798.279297,321
798.398315,328
798.517273,331
798.636292,319
798.75531,309
798.874268,332
798.993286,313
799.112244,319
799.231323,329
799.350281,325
799.469238,330
799.588257,327
799.707153,319
799.826111,312
799.945129,330
800.064087,323
800.183044,329
800.302063,320
800.421021,312
800.539978,315
800.658936,326
800.777893,318
800.896912,319
801.015747,310
801.134705,331
801.253723,314
801.37262,316
801.491638,336
801.610535,323
801.729492,323
801.84845,330
801.967407,315
802.086243,321
802.205261,322
802.324158,336
802.443115,326
802.562073,328
802.680969,322
802.799927,341
802.918762,312
803.037659,309
803.156677,326
803.275574,319
803.39447,332
803.513428,335
803.632263,309
803.751221,326
803.870117,311
803.989014,331
804.107971,314
804.226746,328
804.345642,320
804.4646,313
804.583496,321
804.702393,315
804.821228,309
804.940125,335
805.059021,321
805.177917,327
805.296814,314
805.415649,314
805.534546,317
805.653442,318
805.772278,319
805.891113,307
806.01001,316
806.128906,310
806.247742,323
806.366577,329
806.485413,327
806.604309,318
806.723145,329
806.84198,335
806.960876,319
807.079712,321
807.198486,310
807.317383,310
807.436218,321
807.554993,312
807.673889,319
807.792725,319
807.91156,319
808.030396,335
808.14917,324
808.268005,329
808.386841,314
808.505676,322
808.624451,315
808.743286,333
808.862122,324
808.980896,327
809.099731,322
809.218506,323
809.337341,316
809.456116,324
809.57489,324
809.693726,310
809.8125,330
809.931274,302
810.050049,322
810.168884,320
810.287659,314
810.406372,320
810.525269,320
810.643982,313
810.762756,329
810.881531,319
811.000305,317
811.11908,322
811.237854,319
811.356567,322
811.475403,317
811.594116,330
811.71283,311
811.831604,326
811.950378,328
812.069153,325
812.187927,320
812.30658,323
812.425415,314
812.544128,323
812.662781,320
812.781616,330
812.900269,328
813.019043,314
813.137756,320
813.256531,343
813.375244,333
813.493896,325
813.612671,319
813.731384,325
813.850037,318
813.96875,333
814.087524,320
814.206238,318
814.324951,322
814.443604,318
814.562256,333
814.68103,316
814.799683,330
814.918335,312
815.037109,303
815.155762,326
815.274475,304
815.393188,309
815.511841,330
815.630554,304
815.749146,320
815.867859,312
815.986572,305
816.105164,314
816.223877,327
816.342529,319
816.461182,322
816.579895,316
816.698486,317
816.817139,328
816.935791,319
817.054504,328
817.173096,313
817.291748,324
817.4104,311
817.529053,309
817.647644,332
817.766235,306
817.884949,322
818.00354,322
818.122192,331
818.240845,338
818.359436,320
818.478088,322
818.59668,324
818.715271,329
818.833923,316
818.952515,307
819.071106,316
819.189758,313
819.30835,310
819.426941,317
819.545532,310
819.664124,318
819.782715,313
819.901306,310
820.019897,324
820.138489,323
820.25708,324
820.375671,302
820.494202,321
820.612732,302
820.731384,315
820.849915,327
820.968506,314
821.087097,322
821.205627,326
821.324158,318
821.442749,296
821.561279,327
821.679871,308
821.798401,310
821.916931,315
822.035461,306
822.154053,308
822.272583,313
822.391174,314
822.509583,309
822.628174,314
822.746704,318
822.865234,322
822.983765,314
823.102295,316
823.220825,328
823.339294,324
823.457825,300
823.576355,331
823.694824,314
823.813354,322
823.931885,326
824.050354,326
824.168884,305
824.287354,320
824.405823,321
824.524353,311
824.642822,308
824.761353,323
824.879822,314
824.998291,313
825.116699,304
825.235291,315
825.353699,327
825.472168,332
825.590637,310
825.709106,315
825.827576,317
825.946045,317
826.064453,333
826.182983,315
826.301392,319
826.4198,325
826.53833,331
826.656738,314
826.775208,317
826.893677,315
827.012024,329
827.130493,303
827.248962,318
827.36731,310
827.485779,316
827.604248,336
827.722595,306
827.841064,322
827.959412,320
828.077942,319
828.196289,317
828.314636,316
828.433105,322
828.551514,311
828.669861,323
828.78833,308
828.906677,318
829.025085,314
829.143433,328
829.261841,305
829.38031,312
829.498657,299
829.617004,323
829.735413,309
829.85376,313
829.972107,321
830.090515,304
830.208862,335
830.327209,317
830.445557,314
830.563904,317
830.682312,306
830.800659,310
830.919006,316
831.037354,307
831.155701,324
831.274048,322
831.392395,328
831.51062,321
831.629028,316
831.747314,320
831.865662,324
831.984009,313
832.102356,320
832.220642,309
832.338928,325
832.457275,318
832.575623,304
832.693909,300
832.812134,307
832.930481,330
833.048828,321
833.167114,303
833.2854,314
833.403687,339
833.521973,308
833.640259,305
833.758545,306
833.876831,334
833.995056,307
834.113281,328
834.231628,320
834.349915,316
834.468201,317
834.586426,326
834.704651,305
834.822998,322
834.941162,317
835.059448,306
835.177673,315
835.295959,327
835.414246,320
835.53241,319
835.650635,320
835.768921,306
835.887146,322
836.005371,318
836.123596,310
836.241821,317
836.360046,311
836.478271,314
836.596497,305
836.714722,312
836.832886,322
836.95105,299
837.069336,325
837.1875,316
837.305725,301
837.423889,308
837.542053,335
837.660339,324
837.778503,329
837.896667,304
838.014832,325
838.132996,315
838.25116,312
838.369385,334
838.487488,300
838.605713,321
838.723877,321
838.84198,320
838.960205,314
839.078308,321
839.196472,314
839.314636,303
839.4328,323
839.550964,315
839.669067,312
839.787231,311
839.905396,314
840.023499,308
840.141602,323
840.259766,306
840.377869,313
840.495972,316
840.614136,321
840.732239,322
840.850342,314
840.968445,319
841.086548,320
841.204651,317
841.322754,318
841.440918,326
841.55896,316
841.677002,312
841.795166,309
841.913208,307
842.031311,322
842.149353,322
842.267456,318
842.385498,325
842.503601,312
842.621643,315
842.739746,325
842.857788,320
842.97583,324
843.093933,310
843.211975,318
843.330017,312
843.44812,321
843.566101,323
843.684204,318
843.802246,318
843.920227,314
844.038269,328
844.156311,322
844.274292,312
844.392395,317
844.510376,313
844.628357,316
844.74646,330
844.864441,313
844.982422,312
845.100403,310
845.218384,308
845.336426,326
845.454468,321
845.572449,310
845.69043,313
845.808411,312
845.926453,323
846.044373,321
846.162354,314
846.280396,324
846.398315,312
846.516296,305
846.634216,323
846.752197,311
846.870178,321
846.988098,299
847.106079,321
847.22406,315
847.34198,313
847.4599,312
847.577881,318
847.695801,311
847.813782,317
847.931641,316
848.049561,314
848.167603,319
848.285461,318
848.403381,327
848.521362,315
848.639221,318
848.75708,324
848.875,319
848.99292,327
849.110901,308
849.22876,321
849.34668,313
849.464539,316
849.582458,319
849.700317,319
849.818176,326
849.936096,318
850.053955,330
850.171875,314
850.289673,310
850.407593,322
850.525452,318
850.643311,311
850.761169,312
850.878967,317
850.996887,315
851.114746,303
851.232544,322
851.350403,312
851.468262,310
851.58606,305
851.703979,326
851.821777,315
851.939636,313
852.057434,311
852.175232,310
852.293091,323
852.410889,300
852.528687,321
852.646545,292
852.764343,307
852.88208,330
852.999939,328
853.117676,326
853.235535,314
853.353271,307
853.471069,313
853.588928,320
853.706604,317
853.824402,305
853.9422,315
854.059998,310
854.177734,308
854.295532,318
854.413269,308
854.531006,313
854.648804,318
854.766541,329
854.884277,319
855.002014,311
855.119751,301
855.237549,302
855.355225,318
855.473022,322
855.590698,318
855.708435,323
855.826172,313
855.943848,322
856.061646,320
856.179321,316
856.296997,312
856.414795,313
856.53241,317
856.650085,327
856.767822,307
856.885559,320
857.003174,311
857.120911,315
857.238586,329
857.356201,306
857.473938,312
857.591614,317
857.709351,322
857.826965,311
857.944641,313
858.062317,311
858.179993,311
858.297668,328
858.415283,328
858.532959,309
858.650574,334
858.768188,311
858.885803,312
859.003479,316
859.121094,309
859.23877,324
859.356384,316
859.473999,319
859.591675,311
859.709229,311
859.826843,317
859.944458,308
860.062012,323
860.179626,316
860.297302,311
860.414856,308
860.532471,332
860.650024,329
860.767639,304
860.885193,319
861.002808,317
861.120361,311
861.237976,318
861.35553,315
861.473022,317
861.590698,309
861.708191,320
861.825745,324
861.943298,317
862.060852,330
862.178406,323
862.295959,317
862.413513,312
862.531006,323
862.64856,308
862.766113,322
862.883667,318
863.00116,310
863.118713,316
863.236206,318
863.353699,318
863.471252,316
863.588745,323
863.706177,322
863.82373,328
863.941162,322
864.058716,309
864.176208,314
864.29364,314
864.411194,313
864.528687,311
864.646118,316
864.763611,325
864.881042,323
864.998535,313
865.116028,321
865.233459,309
865.350891,315
865.468384,323
865.585754,300
865.703308,320
865.820679,318
865.938171,329
866.055542,316
866.173035,318
866.290466,309
866.407837,319
866.52533,314
866.6427,325
866.760071,319
866.877563,335
866.994934,319
867.112305,322
867.229736,311
867.347107,311
867.464539,317
867.58197,309
867.699341,315
867.81665,333
867.934082,316
868.051453,311
868.168823,320
868.286194,309
868.403564,310
868.520935,313
868.638306,320
868.755676,312
868.872986,315
868.990295,310
869.107727,313
869.225037,310
869.342346,311
869.459717,308
869.577026,330
869.694336,317
869.811707,305
869.929016,319
870.046326,305
870.163635,318
870.280945,300
870.398254,322
870.515564,294
870.632812,331
870.750183,316
870.867432,318
870.984741,304
871.102051,317
871.219299,314
871.336609,323
871.453918,307
871.571106,317
871.688416,312
871.805664,312
871.922852,325
872.040222,322
872.157471,320
872.274719,321
872.391968,331
872.509155,311
872.626465,315
872.743652,316
872.860962,313
872.978149,322
873.095337,312
873.212646,308
873.329834,319
873.44696,318
873.564209,319
873.681396,325
873.798645,318
873.915894,318
874.03302,311
874.150208,322
874.267456,315
874.384583,317
874.501831,312
874.618958,303
874.736145,320
874.853333,317
874.970459,324
875.087646,308
875.204834,310
875.32196,312
875.439148,324
875.556274,327
875.673401,310
875.790527,321
875.907715,324
876.024841,324
876.141968,310
876.259094,314
876.376282,325
876.493347,318
876.610474,330
876.7276,316
876.844727,317
876.961853,325
877.078918,314
877.195984,316
877.313171,316
877.430237,305
877.547302,309
877.664368,310
877.781433,323
877.898499,313
878.015625,306
878.13269,314
878.249695,313
878.366821,318
878.483887,312
878.600952,311
878.717957,310
878.834961,322
878.952087,326
879.069092,323
879.186157,320
879.303162,313
879.420227,329
879.537231,329
879.654236,306
879.77124,314
879.888306,326
880.005249,306
880.122314,325
880.239319,318
880.356323,317
880.473328,319
880.590271,297
880.707275,322
880.824341,298
880.941284,323
881.058228,313
881.175232,317
881.292236,310
881.40918,320
881.526123,305
881.643066,316
881.760071,330
881.877014,310
881.993958,305
882.11084,318
882.227783,319
882.344727,309
882.46167,320
882.578613,315
882.695618,323
882.812439,315
882.929382,317
883.046326,317
883.163208,318
883.280151,319
883.397034,314
883.513916,321
883.630798,311
883.747742,318
883.864563,311
883.981506,309
884.098389,302
884.21521,322
884.332153,314
884.448975,321
884.565796,314
884.682678,316
884.7995,321
884.916443,326
885.033264,320
885.150085,327
885.266968,313
885.383789,318
885.500671,310
885.617493,326
885.734314,309
885.851196,313
885.967896,320
886.084717,323
886.201599,315
886.318359,328
886.435181,320
886.552002,321
886.668762,325
886.785645,326
886.902344,325
887.019165,305
887.135925,311
887.252747,314
887.369446,311
887.486267,315
887.603027,314
887.719788,321
887.836548,324
887.953247,307
888.070068,309
888.186829,292
888.303528,307
888.420288,326
888.536987,329
888.653687,325
888.770447,321
888.887146,322
889.003967,317
889.120667,318
889.237305,327
889.354065,323
889.470703,317
889.587463,316
889.704163,317
889.820862,314
889.937561,311
890.054199,317
890.170837,319
890.287598,326
890.404236,300
890.520874,306
890.637634,326
890.754211,322
890.87085,309
890.987549,319
891.104187,310
891.220886,325
891.337463,317
891.454102,319
891.57074,327
891.687378,326
891.804077,319
891.920654,311
892.037231,325
892.15387,311
892.270447,310
892.387085,321
892.503723,315
892.6203,319
892.736877,312
892.853516,318
892.970032,315
893.08667,315
893.203186,332
893.319763,318
893.43634,306
893.552917,322
893.669556,318
893.786011,315
893.902588,319
894.019165,329
894.135681,303
894.252197,323
894.368835,327
894.485291,306
894.601868,314
894.718384,311
894.8349,315
894.951355,323
895.067932,317
895.184448,320
895.300964,315
895.417419,319
895.533936,316
895.650452,300
895.766907,320
895.883423,319
895.999878,325
896.116333,327
896.232849,317
896.349304,314
896.465759,329
896.582214,313
896.698669,311
896.815125,315
896.931641,310
897.048035,327
897.164551,318
897.280884,327
897.397339,319
897.513794,321
897.630249,317
897.746582,313
897.863098,327
897.979431,315
898.095886,305
898.212341,312
898.328674,314
898.445129,326
898.561462,322
898.677795,316
898.794312,297
898.910645,319
899.026978,320
899.143433,314
899.259766,325
899.37616,319
899.492493,305
899.608765,316
899.725159,316
899.841553,298
899.957947,326
900.07428,315
900.190552,318
900.306946,316
900.423157,329
900.53949,314
900.655884,315
900.772156,317
900.888489,302
901.004822,317
901.121033,319
901.237366,310
901.353699,330
901.46991,314
901.586304,318
901.702515,323
901.818787,323
901.93512,315
902.051331,326
902.167603,323
902.283875,316
902.400085,314
902.516418,310
902.632629,303
902.74884,324
902.865112,329
902.981384,321
903.097595,326
903.213867,314
903.330017,325
903.446289,306
903.5625,333
903.67865,316
903.794922,315
903.911072,326
904.027344,320
904.143494,319
904.259705,330
904.375916,308
904.492065,327
904.608215,312
904.724426,324
904.840576,309
904.956726,327
905.072876,311
905.189087,325
905.305176,304
905.421387,315
905.537537,330
905.653687,335
905.769775,313
905.885925,315
906.002014,313
906.118164,316
906.234314,310
906.350403,322
906.466492,315
906.582642,317
906.69873,313
906.814758,310
906.930908,315
907.046936,325
907.163086,316
907.279175,322
907.395264,319
907.511353,315
907.62738,308
907.743408,310
907.859497,321
907.975525,329
908.091553,320
908.207703,314
908.32373,311
908.439758,317
908.555786,302
908.671814,324
908.787842,329
908.90387,313
909.019775,301
909.135864,313
909.251892,311
909.367859,314
909.483826,310
909.599854,311
909.715881,317
909.831848,321
909.947815,307
910.063782,328
910.179749,331
910.295776,318
910.411743,310
910.527649,307
910.643616,329
910.759583,309
910.875488,327
910.991455,321
911.107361,317
911.223267,325
911.339294,326
911.4552,311
911.571106,317
911.687073,314
911.802979,307
911.918823,314
912.034729,315
912.150635,310
912.266602,318
912.382446,309
912.498352,313
912.614197,330
912.730103,310
912.846008,306
