792.44574,319
792.56488,342
792.68396,415
792.80304,373
792.92218,326
793.041199,329
793.160339,324
793.279419,335
793.398499,334
793.517578,312
793.636658,323
793.755737,328
793.874817,351
793.993896,337
794.112976,337
794.232056,323
794.351074,328
794.470215,318
794.589233,340
794.708313,333
794.827393,326
794.946411,330
795.065552,340
795.18457,345
795.303589,328
795.422668,339
795.541687,333
795.660767,338
795.779846,330
795.898865,321
796.017883,323
796.136963,340
796.255981,348
796.375061,328
796.49408,319
796.613037,345
796.732117,327
796.851135,340
796.970154,327
797.089233,333
797.208191,344
797.327271,338
797.446228,339
797.565186,331
797.684265,327
797.803223,320
797.922241,343
798.04126,337
798.160278,331
798.279297,314
798.398315,338
798.517273,328
798.636292,326
798.75531,337
798.874268,328
798.993286,334
799.112244,321
799.231323,326
799.350281,320
799.469238,338
799.588257,326
799.707153,328
799.826111,337
799.945129,341
800.064087,328
800.183044,335
800.302063,335
800.421021,320
800.539978,321
800.658936,329
800.777893,327
800.896912,327
801.015747,321
801.134705,339
801.253723,320
801.37262,348
801.491638,327
801.610535,332
801.729492,342
801.84845,329
801.967407,335
802.086243,329
802.205261,326
802.324158,335
802.443115,331
802.562073,329
802.680969,327
802.799927,335
802.918762,325
803.037659,329
803.156677,331
803.275574,323
803.39447,330
803.513428,335
803.632263,317
803.751221,336
803.870117,322
803.989014,320
804.107971,334
804.226746,335
804.345642,333
804.4646,319
804.583496,340
804.702393,341
804.821228,324
804.940125,327
805.059021,327
805.177917,331
805.296814,329
805.415649,329
805.534546,331
805.653442,323
805.772278,342
805.891113,332
806.01001,326
806.128906,347
806.247742,333
806.366577,336
806.485413,347
806.604309,332
806.723145,348
806.84198,318
806.960876,329
807.079712,330
807.198486,347
807.317383,336
807.436218,337
807.554993,326
807.673889,327
807.792725,341
807.91156,336
808.030396,323
808.14917,323
808.268005,345
808.386841,327
808.505676,334
808.624451,324
808.743286,338
808.862122,341
808.980896,328
809.099731,342
809.218506,335
809.337341,335
809.456116,331
809.57489,323
809.693726,322
809.8125,322
809.931274,338
810.050049,340
810.168884,325
810.287659,345
810.406372,329
810.525269,333
810.643982,331
810.762756,328
810.881531,324
811.000305,324
811.11908,331
811.237854,332
811.356567,314
811.475403,336
811.594116,333
811.71283,354
811.831604,341
811.950378,334
812.069153,332
812.187927,327
812.30658,330
812.425415,336
812.544128,337
812.662781,340
812.781616,336
812.900269,339
813.019043,332
813.137756,329
813.256531,340
813.375244,344
813.493896,337
813.612671,338
813.731384,320
813.850037,328
813.96875,339
814.087524,324
814.206238,335
814.324951,327
814.443604,343
814.562256,328
814.68103,329
814.799683,324
814.918335,327
815.037109,329
815.155762,325
815.274475,333
815.393188,344
815.511841,320
815.630554,336
815.749146,327
815.867859,327
815.986572,343
816.105164,325
816.223877,323
816.342529,339
816.461182,333
816.579895,329
816.698486,337
816.817139,323
816.935791,340
817.054504,323
817.173096,324
817.291748,321
817.4104,340
817.529053,326
817.647644,316
817.766235,323
817.884949,328
818.00354,323
818.122192,334
818.240845,332
818.359436,331
818.478088,325
818.59668,311
818.715271,329
818.833923,337
818.952515,326
819.071106,321
819.189758,306
819.30835,311
819.426941,322
819.545532,339
819.664124,320
819.782715,320
819.901306,322
820.019897,340
820.138489,316
820.25708,313
820.375671,316
820.494202,321
820.612732,327
820.731384,326
820.849915,317
820.968506,315
821.087097,320
821.205627,311
821.324158,320
821.442749,317
821.561279,308
821.679871,325
821.798401,332
821.916931,329
822.035461,317
822.154053,314
822.272583,324
822.391174,320
822.509583,320
822.628174,322
822.746704,321
822.865234,318
822.983765,319
823.102295,315
823.220825,316
823.339294,326
823.457825,324
823.576355,328
823.694824,320
823.813354,320
823.931885,327
824.050354,323
824.168884,333
824.287354,326
824.405823,311
824.524353,316
824.642822,324
824.761353,329
824.879822,315
824.998291,320
825.116699,324
825.235291,320
825.353699,325
825.472168,327
825.590637,304
825.709106,330
825.827576,325
825.946045,310
826.064453,324
826.182983,314
826.301392,316
826.4198,317
826.53833,323
826.656738,319
826.775208,326
826.893677,321
827.012024,309
827.130493,320
827.248962,324
827.36731,314
827.485779,321
827.604248,315
827.722595,317
827.841064,327
827.959412,321
828.077942,308
828.196289,311
828.314636,315
828.433105,319
828.551514,323
828.669861,319
828.78833,314
828.906677,321
829.025085,316
829.143433,311
829.261841,326
829.38031,313
829.498657,318
829.617004,314
829.735413,312
829.85376,308
829.972107,332
830.090515,313
830.208862,329
830.327209,311
830.445557,325
830.563904,308
830.682312,316
830.800659,312
830.919006,322
831.037354,300
831.155701,311
831.274048,328
831.392395,315
831.51062,305
831.629028,321
831.747314,320
831.865662,324
831.984009,313
832.102356,312
832.220642,324
832.338928,325
832.457275,314
832.575623,326
832.693909,315
832.812134,318
832.930481,313
833.048828,326
833.167114,322
833.2854,319
833.403687,321
833.521973,324
833.640259,330
833.758545,317
833.876831,312
833.995056,330
834.113281,320
834.231628,322
834.349915,323
834.468201,323
834.586426,322
834.704651,323
834.822998,318
834.941162,308
835.059448,312
835.177673,318
835.295959,311
835.414246,328
835.53241,314
835.650635,310
835.768921,312
835.887146,321
836.005371,309
836.123596,318
836.241821,319
836.360046,307
836.478271,317
836.596497,330
836.714722,309
836.832886,324
836.95105,319
837.069336,330
837.1875,312
837.305725,325
837.423889,305
837.542053,327
837.660339,308
837.778503,330
837.896667,314
838.014832,311
838.132996,308
838.25116,322
838.369385,314
838.487488,337
838.605713,315
838.723877,327
838.84198,321
838.960205,315
839.078308,321
839.196472,329
839.314636,320
839.4328,320
839.550964,316
839.669067,330
839.787231,321
839.905396,310
840.023499,316
840.141602,315
840.259766,317
840.377869,319
840.495972,316
840.614136,320
840.732239,321
840.850342,307
840.968445,324
841.086548,315
841.204651,307
841.322754,328
841.440918,307
841.55896,328
841.677002,309
841.795166,317
841.913208,307
842.031311,326
842.149353,319
842.267456,332
842.385498,302
842.503601,325
842.621643,324
842.739746,316
842.857788,324
842.97583,315
843.093933,307
843.211975,318
843.330017,308
843.44812,305
843.566101,304
843.684204,319
843.802246,308
843.920227,317
844.038269,325
844.156311,317
844.274292,312
844.392395,319
844.510376,313
844.628357,328
844.74646,312
844.864441,320
844.982422,314
845.100403,311
845.218384,303
845.336426,319
845.454468,325
845.572449,307
845.69043,332
845.808411,314
845.926453,313
846.044373,335
846.162354,312
846.280396,322
846.398315,316
846.516296,313
846.634216,307
846.752197,322
846.870178,318
846.988098,325
847.106079,327
847.22406,314
847.34198,315
847.4599,322
847.577881,325
847.695801,331
847.813782,316
847.931641,328
848.049561,325
848.167603,320
848.285461,319
848.403381,330
848.521362,314
848.639221,322
848.75708,310
848.875,328
848.99292,319
849.110901,311
849.22876,321
849.34668,322
849.464539,324
849.582458,312
849.700317,307
849.818176,308
849.936096,321
850.053955,317
850.171875,310
850.289673,310
850.407593,315
850.525452,319
850.643311,308
850.761169,306
850.878967,335
850.996887,314
851.114746,320
851.232544,333
851.350403,321
851.468262,332
851.58606,323
851.703979,322
851.821777,315
851.939636,324
852.057434,306
852.175232,316
852.293091,330
852.410889,319
852.528687,320
852.646545,319
852.764343,339
852.88208,327
852.999939,315
853.117676,318
853.235535,312
853.353271,312
853.471069,316
853.588928,314
853.706604,304
853.824402,324
853.9422,324
854.059998,334
854.177734,320
854.295532,330
854.413269,318
854.531006,313
854.648804,317
854.766541,322
854.884277,320
855.002014,315
855.119751,302
855.237549,332
855.355225,312
855.473022,318
855.590698,314
855.708435,311
855.826172,336
855.943848,307
856.061646,311
856.179321,325
856.296997,315
856.414795,314
856.53241,313
856.650085,315
856.767822,314
856.885559,323
857.003174,326
857.120911,323
857.238586,312
857.356201,318
857.473938,319
857.591614,321
857.709351,319
857.826965,326
857.944641,312
858.062317,329
858.179993,307
858.297668,314
858.415283,300
858.532959,321
858.650574,317
858.768188,324
858.885803,317
859.003479,331
859.121094,308
859.23877,328
859.356384,302
859.473999,328
859.591675,321
859.709229,318
859.826843,306
859.944458,316
860.062012,317
860.179626,315
860.297302,322
860.414856,312
860.532471,314
860.650024,316
860.767639,321
860.885193,324
861.002808,316
861.120361,332
861.237976,327
861.35553,303
861.473022,300
861.590698,331
861.708191,321
861.825745,309
861.943298,312
862.060852,314
862.178406,317
862.295959,322
862.413513,310
862.531006,322
862.64856,321
862.766113,325
862.883667,315
863.00116,318
863.118713,316
863.236206,315
863.353699,322
863.471252,317
863.588745,329
863.706177,314
863.82373,304
863.941162,318
864.058716,317
864.176208,324
864.29364,317
864.411194,319
864.528687,305
864.646118,313
864.763611,325
864.881042,314
864.998535,316
865.116028,322
865.233459,327
865.350891,324
865.468384,312
865.585754,317
865.703308,318
865.820679,326
865.938171,318
866.055542,322
866.173035,321
866.290466,307
866.407837,319
866.52533,329
866.6427,314
866.760071,303
866.877563,320
866.994934,325
867.112305,321
867.229736,318
867.347107,328
867.464539,310
867.58197,310
867.699341,323
867.81665,313
867.934082,303
868.051453,327
868.168823,325
868.286194,309
868.403564,314
868.520935,302
868.638306,319
868.755676,313
868.872986,312
868.990295,316
869.107727,332
869.225037,327
869.342346,311
869.459717,319
869.577026,316
869.694336,322
869.811707,318
869.929016,319
870.046326,314
870.163635,319
870.280945,319
870.398254,302
870.515564,307
870.632812,313
870.750183,330
870.867432,321
870.984741,326
871.102051,316
871.219299,325
871.336609,315
871.453918,316
871.571106,316
871.688416,315
871.805664,320
871.922852,318
872.040222,308
872.157471,314
872.274719,321
872.391968,321
872.509155,326
872.626465,315
872.743652,318
872.860962,324
872.978149,315
873.095337,322
873.212646,313
873.329834,321
873.44696,318
873.564209,312
873.681396,305
873.798645,321
873.915894,308
874.03302,316
874.150208,312
874.267456,325
874.384583,321
874.501831,324
874.618958,302
874.736145,323
874.853333,309
874.970459,339
875.087646,307
875.204834,310
875.32196,316
875.439148,318
875.556274,326
875.673401,328
875.790527,317
875.907715,315
876.024841,322
876.141968,312
876.259094,317
876.376282,313
876.493347,308
876.610474,314
876.7276,297
876.844727,318
876.961853,322
877.078918,311
877.195984,310
877.313171,331
877.430237,318
877.547302,321
877.664368,328
877.781433,333
877.898499,327
878.015625,326
878.13269,321
878.249695,322
878.366821,312
878.483887,312
878.600952,322
878.717957,312
878.834961,319
878.952087,324
879.069092,305
879.186157,325
879.303162,326
879.420227,316
879.537231,318
879.654236,308
879.77124,310
879.888306,321
880.005249,318
880.122314,320
880.239319,304
880.356323,307
880.473328,316
880.590271,307
880.707275,311
880.824341,330
880.941284,316
881.058228,321
881.175232,316
881.292236,332
881.40918,313
881.526123,310
881.643066,311
881.760071,309
881.877014,311
881.993958,312
882.11084,311
882.227783,319
882.344727,309
882.46167,326
882.578613,329
882.695618,330
882.812439,314
882.929382,316
883.046326,302
883.163208,314
883.280151,319
883.397034,318
883.513916,309
883.630798,319
883.747742,315
883.864563,304
883.981506,314
884.098389,314
884.21521,323
884.332153,320
884.448975,305
884.565796,322
884.682678,306
884.7995,316
884.916443,318
885.033264,316
885.150085,335
885.266968,314
885.383789,316
885.500671,325
885.617493,302
885.734314,319
885.851196,307
885.967896,319
886.084717,317
886.201599,321
886.318359,311
886.435181,323
886.552002,319
886.668762,327
886.785645,315
886.902344,315
887.019165,316
887.135925,322
887.252747,322
887.369446,329
887.486267,321
887.603027,330
887.719788,320
887.836548,310
887.953247,308
888.070068,318
888.186829,313
888.303528,318
888.420288,318
888.536987,321
888.653687,314
888.770447,323
888.887146,317
889.003967,330
889.120667,315
889.237305,320
889.354065,317
889.470703,313
889.587463,314
889.704163,313
889.820862,324
889.937561,324
890.054199,314
890.170837,321
890.287598,317
890.404236,322
890.520874,307
890.637634,324
890.754211,305
890.87085,317
890.987549,322
891.104187,313
891.220886,316
891.337463,322
891.454102,318
891.57074,322
891.687378,304
891.804077,312
891.920654,315
892.037231,322
892.15387,323
892.270447,316
892.387085,327
892.503723,321
892.6203,297
892.736877,315
892.853516,319
892.970032,326
893.08667,322
893.203186,330
893.319763,322
893.43634,311
893.552917,316
893.669556,305
893.786011,320
893.902588,323
894.019165,318
894.135681,327
894.252197,326
894.368835,312
894.485291,309
894.601868,323
894.718384,321
894.8349,316
894.951355,322
895.067932,317
895.184448,313
895.300964,329
895.417419,317
895.533936,314
895.650452,322
895.766907,316
895.883423,318
895.999878,330
896.116333,319
896.232849,316
896.349304,319
896.465759,313
896.582214,303
896.698669,323
896.815125,309
896.931641,328
897.048035,323
897.164551,333
897.280884,321
897.397339,322
897.513794,303
897.630249,324
897.746582,313
897.863098,327
897.979431,311
898.095886,329
898.212341,328
898.328674,317
898.445129,318
898.561462,326
898.677795,318
898.794312,329
898.910645,321
899.026978,335
899.143433,318
899.259766,310
899.37616,313
899.492493,327
899.608765,322
899.725159,320
899.841553,318
899.957947,323
900.07428,321
900.190552,312
900.306946,327
900.423157,323
900.53949,307
900.655884,335
900.772156,308
900.888489,323
901.004822,301
901.121033,332
901.237366,317
901.353699,315
901.46991,316
901.586304,318
901.702515,335
901.818787,322
901.93512,314
902.051331,314
902.167603,324
902.283875,327
902.400085,320
902.516418,320
902.632629,306
902.74884,317
902.865112,310
902.981384,320
903.097595,308
903.213867,323
903.330017,318
903.446289,330
903.5625,309
903.67865,336
903.794922,323
903.911072,317
904.027344,312
904.143494,315
904.259705,317
904.375916,320
904.492065,326
904.608215,316
904.724426,310
904.840576,323
904.956726,313
905.072876,320
905.189087,322
905.305176,322
905.421387,316
905.537537,305
905.653687,330
905.769775,324
905.885925,310
906.002014,316
906.118164,317
906.234314,320
906.350403,309
906.466492,316
906.582642,311
906.69873,313
906.814758,328
906.930908,316
907.046936,324
907.163086,319
907.279175,319
907.395264,318
907.511353,324
907.62738,322
907.743408,323
907.859497,330
907.975525,322
908.091553,311
908.207703,309
908.32373,327
908.439758,313
908.555786,319
908.671814,330
908.787842,333
908.90387,313
909.019775,332
909.135864,315
909.251892,313
909.367859,317
909.483826,324
909.599854,329
909.715881,327
909.831848,316
909.947815,301
910.063782,314
910.179749,320
910.295776,314
910.411743,326
910.527649,314
910.643616,317
910.759583,308
910.875488,314
910.991455,329
911.107361,305
911.223267,318
911.339294,309
911.4552,305
911.571106,313
911.687073,317
911.802979,308
911.918823,312
912.034729,312
912.150635,312
912.266602,318
912.382446,312
912.498352,326
912.614197,310
912.730103,312
912.846008,320
792.44574,306
792.56488,369
792.68396,406
792.80304,375
792.92218,333
793.041199,318
793.160339,324
793.279419,337
793.398499,324
793.517578,322
793.636658,325
793.755737,344
793.874817,346
793.993896,342
794.112976,342
794.232056,337
794.351074,333
794.470215,345
794.589233,333
794.708313,328
794.827393,314
794.946411,332
795.065552,338
795.18457,346
795.303589,339
795.422668,333
795.541687,331
795.660767,333
795.779846,327
795.898865,343
796.017883,328
796.136963,339
796.255981,322
796.375061,329
796.49408,342
796.613037,328
796.732117,323
796.851135,327
796.970154,339
797.089233,339
797.208191,324
797.327271,326
797.446228,343
797.565186,333
797.684265,337
797.803223,324
797.922241,318
798.04126,326
798.160278,327
798.279297,314
798.398315,340
798.517273,328
798.636292,328
798.75531,326
798.874268,326
798.993286,341
799.112244,326
799.231323,332
799.350281,323
799.469238,324
799.588257,324
799.707153,324
799.826111,335
799.945129,340
800.064087,320
800.183044,324
800.302063,340
800.421021,333
800.539978,327
800.658936,323
800.777893,329
800.896912,327
801.015747,330
801.134705,327
801.253723,312
801.37262,336
801.491638,324
801.610535,340
801.729492,339
801.84845,342
801.967407,319
802.086243,334
802.205261,317
802.324158,328
802.443115,336
802.562073,340
802.680969,324
802.799927,327
802.918762,321
803.037659,341
803.156677,338
803.275574,333
803.39447,339
803.513428,339
803.632263,325
803.751221,319
803.870117,327
803.989014,329
804.107971,321
804.226746,335
804.345642,334
804.4646,334
804.583496,338
804.702393,333
804.821228,337
804.940125,322
805.059021,329
805.177917,335
805.296814,325
805.415649,332
805.534546,331
805.653442,331
805.772278,325
805.891113,344
806.01001,325
806.128906,333
806.247742,348
806.366577,329
806.485413,312
806.604309,342
806.723145,330
806.84198,338
806.960876,326
807.079712,333
807.198486,332
807.317383,331
807.436218,339
807.554993,348
807.673889,335
807.792725,337
807.91156,331
808.030396,319
808.14917,326
808.268005,327
808.386841,326
808.505676,332
808.624451,331
808.743286,332
808.862122,339
808.980896,338
809.099731,332
809.218506,325
809.337341,343
809.456116,337
809.57489,347
809.693726,335
809.8125,330
809.931274,336
810.050049,329
810.168884,347
810.287659,324
810.406372,336
810.525269,325
810.643982,330
810.762756,324
810.881531,342
811.000305,322
811.11908,342
811.237854,328
811.356567,336
811.475403,343
811.594116,332
811.71283,332
811.831604,332
811.950378,332
812.069153,331
812.187927,350
812.30658,344
812.425415,320
812.544128,341
812.662781,317
812.781616,325
812.900269,323
813.019043,348
813.137756,333
813.256531,338
813.375244,330
813.493896,334
813.612671,331
813.731384,343
813.850037,343
813.96875,342
814.087524,346
814.206238,341
814.324951,331
814.443604,320
814.562256,340
814.68103,337
814.799683,321
814.918335,341
815.037109,320
815.155762,331
815.274475,349
815.393188,315
815.511841,328
815.630554,334
815.749146,330
815.867859,337
815.986572,334
816.105164,329
816.223877,333
816.342529,336
816.461182,314
816.579895,314
816.698486,324
816.817139,344
816.935791,341
817.054504,334
817.173096,320
817.291748,327
817.4104,323
817.529053,342
817.647644,321
817.766235,336
817.884949,317
818.00354,320
818.122192,337
818.240845,322
818.359436,322
818.478088,326
818.59668,316
818.715271,315
818.833923,333
818.952515,327
819.071106,325
819.189758,330
819.30835,334
819.426941,324
819.545532,329
819.664124,317
819.782715,324
819.901306,309
820.019897,324
820.138489,333
820.25708,329
820.375671,309
820.494202,327
820.612732,316
820.731384,321
820.849915,324
820.968506,328
821.087097,318
821.205627,339
821.324158,314
821.442749,312
821.561279,304
821.679871,320
821.798401,319
821.916931,323
822.035461,326
822.154053,304
822.272583,330
822.391174,313
822.509583,326
822.628174,313
822.746704,317
822.865234,328
822.983765,323
823.102295,315
823.220825,308
823.339294,312
823.457825,309
823.576355,323
823.694824,312
823.813354,306
823.931885,316
824.050354,320
824.168884,312
824.287354,325
824.405823,323
824.524353,311
824.642822,319
824.761353,321
824.879822,323
824.998291,316
825.116699,334
825.235291,316
825.353699,318
825.472168,307
825.590637,320
825.709106,325
825.827576,319
825.946045,318
826.064453,326
826.182983,305
826.301392,335
826.4198,325
826.53833,327
826.656738,321
826.775208,324
826.893677,323
827.012024,315
827.130493,330
827.248962,311
827.36731,321
827.485779,302
827.604248,320
827.722595,310
827.841064,316
827.959412,325
828.077942,315
828.196289,324
828.314636,314
828.433105,319
828.551514,319
828.669861,321
828.78833,311
828.906677,308
829.025085,304
829.143433,328
829.261841,311
829.38031,324
829.498657,327
829.617004,314
829.735413,326
829.85376,321
829.972107,318
830.090515,322
830.208862,310
830.327209,319
830.445557,318
830.563904,327
830.682312,319
830.800659,328
830.919006,317
831.037354,322
831.155701,312
831.274048,323
831.392395,311
831.51062,322
831.629028,313
831.747314,323
831.865662,319
831.984009,323
832.102356,335
832.220642,329
832.338928,310
832.457275,312
832.575623,316
832.693909,319
832.812134,309
832.930481,313
833.048828,317
833.167114,326
833.2854,324
833.403687,326
833.521973,301
833.640259,321
833.758545,328
833.876831,328
833.995056,307
834.113281,333
834.231628,312
834.349915,327
834.468201,316
834.586426,310
834.704651,323
834.822998,316
834.941162,313
835.059448,318
835.177673,311
835.295959,323
835.414246,324
835.53241,313
835.650635,308
835.768921,322
835.887146,319
836.005371,317
836.123596,306
836.241821,305
836.360046,321
836.478271,322
836.596497,324
836.714722,313
836.832886,309
836.95105,327
837.069336,314
837.1875,325
837.305725,329
837.423889,320
837.542053,317
837.660339,319
837.778503,313
837.896667,312
838.014832,322
838.132996,311
838.25116,301
838.369385,317
838.487488,321
838.605713,315
838.723877,318
838.84198,316
838.960205,312
839.078308,318
839.196472,322
839.314636,316
839.4328,317
839.550964,316
839.669067,311
839.787231,317
839.905396,313
840.023499,314
840.141602,319
840.259766,315
840.377869,324
840.495972,319
840.614136,311
840.732239,317
840.850342,307
840.968445,326
841.086548,308
841.204651,323
841.322754,311
841.440918,305
841.55896,320
841.677002,320
841.795166,304
841.913208,312
842.031311,324
842.149353,326
842.267456,330
842.385498,326
842.503601,311
842.621643,305
842.739746,310
842.857788,323
842.97583,315
843.093933,315
843.211975,312
843.330017,324
843.44812,307
843.566101,306
843.684204,328
843.802246,328
843.920227,322
844.038269,323
844.156311,320
844.274292,312
844.392395,323
844.510376,312
844.628357,310
844.74646,319
844.864441,312
844.982422,324
845.100403,319
845.218384,320
845.336426,309
845.454468,325
845.572449,311
845.69043,325
845.808411,320
845.926453,324
846.044373,319
846.162354,300
846.280396,326
846.398315,330
846.516296,314
846.634216,318
846.752197,325
846.870178,316
846.988098,323
847.106079,317
847.22406,325
847.34198,307
847.4599,318
847.577881,307
847.695801,324
847.813782,327
847.931641,310
848.049561,324
848.167603,321
848.285461,318
848.403381,318
848.521362,320
848.639221,321
848.75708,316
848.875,315
848.99292,321
849.110901,328
849.22876,329
849.34668,324
849.464539,312
849.582458,326
849.700317,307
849.818176,329
849.936096,330
850.053955,316
850.171875,309
850.289673,311
850.407593,305
850.525452,316
850.643311,333
850.761169,310
850.878967,316
850.996887,325
851.114746,313
851.232544,319
851.350403,324
851.468262,321
851.58606,320
851.703979,326
851.821777,314
851.939636,299
852.057434,311
852.175232,316
852.293091,317
852.410889,321
852.528687,318
852.646545,328
852.764343,315
852.88208,301
852.999939,324
853.117676,323
853.235535,319
853.353271,315
853.471069,321
853.588928,312
853.706604,305
853.824402,322
853.9422,307
854.059998,314
854.177734,309
854.295532,317
854.413269,307
854.531006,316
854.648804,313
854.766541,313
854.884277,322
855.002014,320
855.119751,327
855.237549,316
855.355225,325
855.473022,310
855.590698,317
855.708435,312
855.826172,332
855.943848,314
856.061646,327
856.179321,311
856.296997,330
856.414795,314
856.53241,325
856.650085,324
856.767822,327
856.885559,322
857.003174,318
857.120911,330
857.238586,315
857.356201,319
857.473938,318
857.591614,325
857.709351,328
857.826965,315
857.944641,327
858.062317,314
858.179993,329
858.297668,327
858.415283,323
858.532959,318
858.650574,324
858.768188,321
858.885803,310
859.003479,307
859.121094,329
859.23877,310
859.356384,315
859.473999,315
859.591675,322
859.709229,301
859.826843,324
859.944458,317
860.062012,313
860.179626,307
860.297302,317
860.414856,317
860.532471,322
860.650024,316
860.767639,318
860.885193,297
861.002808,314
861.120361,316
861.237976,310
861.35553,320
861.473022,312
861.590698,307
861.708191,321
861.825745,311
861.943298,307
862.060852,317
862.178406,328
862.295959,311
862.413513,329
862.531006,309
862.64856,310
862.766113,311
862.883667,312
863.00116,322
863.118713,325
863.236206,334
863.353699,326
863.471252,316
863.588745,310
863.706177,317
863.82373,318
863.941162,315
864.058716,314
864.176208,320
864.29364,318
864.411194,308
864.528687,318
864.646118,313
864.763611,321
864.881042,318
864.998535,317
865.116028,314
865.233459,313
865.350891,311
865.468384,309
865.585754,317
865.703308,319
865.820679,306
865.938171,311
866.055542,325
866.173035,322
866.290466,317
866.407837,305
866.52533,310
866.6427,313
866.760071,309
866.877563,305
866.994934,318
867.112305,328
867.229736,318
867.347107,314
867.464539,316
867.58197,326
867.699341,320
867.81665,315
867.934082,314
868.051453,319
868.168823,324
868.286194,316
868.403564,312
868.520935,321
868.638306,316
868.755676,313
868.872986,327
868.990295,324
869.107727,312
869.225037,310
869.342346,322
869.459717,330
869.577026,315
869.694336,322
869.811707,306
869.929016,329
870.046326,312
870.163635,323
870.280945,330
870.398254,330
870.515564,324
870.632812,320
870.750183,328
870.867432,315
870.984741,327
871.102051,306
871.219299,310
871.336609,331
871.453918,310
871.571106,314
871.688416,315
871.805664,320
871.922852,314
872.040222,320
872.157471,317
872.274719,312
872.391968,321
872.509155,310
872.626465,309
872.743652,322
872.860962,309
872.978149,354
873.095337,308
873.212646,314
873.329834,313
873.44696,312
873.564209,299
873.681396,313
873.798645,309
873.915894,304
874.03302,327
874.150208,327
874.267456,309
874.384583,312
874.501831,327
874.618958,310
874.736145,315
874.853333,320
874.970459,323
875.087646,320
875.204834,306
875.32196,307
875.439148,315
875.556274,324
875.673401,313
875.790527,329
875.907715,323
876.024841,321
876.141968,305
876.259094,332
876.376282,298
876.493347,329
876.610474,302
876.7276,315
876.844727,310
876.961853,324
877.078918,322
877.195984,316
877.313171,311
877.430237,306
877.547302,318
877.664368,316
877.781433,308
877.898499,308
878.015625,310
878.13269,311
878.249695,314
878.366821,328
878.483887,317
878.600952,327
878.717957,317
878.834961,318
878.952087,319
879.069092,333
879.186157,318
879.303162,323
879.420227,318
879.537231,320
879.654236,309
879.77124,314
879.888306,317
880.005249,330
880.122314,312
880.239319,316
880.356323,309
880.473328,331
880.590271,311
880.707275,312
880.824341,323
880.941284,308
881.058228,315
881.175232,318
881.292236,327
881.40918,311
881.526123,311
881.643066,296
881.760071,319
881.877014,316
881.993958,316
882.11084,317
882.227783,321
882.344727,333
882.46167,328
882.578613,316
882.695618,319
882.812439,322
882.929382,319
883.046326,321
883.163208,315
883.280151,312
883.397034,310
883.513916,329
883.630798,308
883.747742,326
883.864563,309
883.981506,306
884.098389,326
884.21521,308
884.332153,328
884.448975,327
884.565796,305
884.682678,324
884.7995,330
884.916443,307
885.033264,324
885.150085,317
885.266968,314
885.383789,323
885.500671,309
885.617493,324
885.734314,307
885.851196,323
885.967896,323
886.084717,318
886.201599,320
886.318359,309
886.435181,316
886.552002,324
886.668762,333
886.785645,314
886.902344,313
887.019165,317
887.135925,308
887.252747,322
887.369446,316
887.486267,318
887.603027,310
887.719788,319
887.836548,330
887.953247,322
888.070068,310
888.186829,315
888.303528,320
888.420288,320
888.536987,305
888.653687,323
888.770447,315
888.887146,318
889.003967,320
889.120667,329
889.237305,326
889.354065,325
889.470703,319
889.587463,319
889.704163,309
889.820862,307
889.937561,307
890.054199,313
890.170837,306
890.287598,303
890.404236,310
890.520874,310
890.637634,312
890.754211,318
890.87085,324
890.987549,308
891.104187,315
891.220886,326
891.337463,311
891.454102,334
891.57074,306
891.687378,325
891.804077,317
891.920654,320
892.037231,309
892.15387,311
892.270447,315
892.387085,324
892.503723,327
892.6203,315
892.736877,309
892.853516,309
892.970032,334
893.08667,319
893.203186,322
893.319763,312
893.43634,322
893.552917,329
893.669556,304
893.786011,312
893.902588,312
894.019165,309
894.135681,329
894.252197,322
894.368835,331
894.485291,320
894.601868,322
894.718384,332
894.8349,317
894.951355,334
895.067932,314
895.184448,317
895.300964,318
895.417419,317
895.533936,326
895.650452,305
895.766907,326
895.883423,312
895.999878,324
896.116333,320
896.232849,313
896.349304,326
896.465759,309
896.582214,327
896.698669,313
896.815125,315
896.931641,322
897.048035,329
897.164551,327
897.280884,309
897.397339,326
897.513794,334
897.630249,325
897.746582,322
897.863098,307
897.979431,311
898.095886,314
898.212341,325
898.328674,322
898.445129,324
898.561462,311
898.677795,325
898.794312,318
898.910645,316
899.026978,313
899.143433,329
899.259766,317
899.37616,330
899.492493,316
899.608765,318
899.725159,321
899.841553,325
899.957947,313
900.07428,309
900.190552,315
900.306946,317
900.423157,323
900.53949,318
900.655884,316
900.772156,318
900.888489,320
901.004822,325
901.121033,325
901.237366,324
901.353699,319
901.46991,316
901.586304,321
901.702515,317
901.818787,317
901.93512,315
902.051331,308
902.167603,321
902.283875,318
902.400085,312
902.516418,326
902.632629,314
902.74884,323
902.865112,315
902.981384,306
903.097595,320
903.213867,320
903.330017,330
903.446289,313
903.5625,323
903.67865,318
903.794922,312
903.911072,321
904.027344,310
904.143494,330
904.259705,322
904.375916,308
904.492065,329
904.608215,331
904.724426,324
904.840576,312
904.956726,321
905.072876,319
905.189087,325
905.305176,306
905.421387,319
905.537537,323
905.653687,329
905.769775,315
905.885925,304
906.002014,327
906.118164,313
906.234314,310
906.350403,331
906.466492,312
906.582642,316
906.69873,310
906.814758,320
906.930908,328
907.046936,315
907.163086,314
907.279175,335
907.395264,324
907.511353,317
907.62738,319
907.743408,329
907.859497,293
907.975525,321
908.091553,320
908.207703,325
908.32373,307
908.439758,322
908.555786,334
908.671814,307
908.787842,312
908.90387,339
909.019775,314
909.135864,310
909.251892,317
909.367859,323
909.483826,327
909.599854,324
909.715881,324
909.831848,315
909.947815,320
910.063782,317
910.179749,323
910.295776,337
910.411743,325
910.527649,318
910.643616,311
910.759583,334
910.875488,318
910.991455,325
911.107361,324
911.223267,321
911.339294,303
911.4552,336
911.571106,318
911.687073,332
911.802979,312
911.918823,309
912.034729,320
912.150635,334
912.266602,309
912.382446,313
912.498352,315
912.614197,313
912.730103,315
912.846008,322
792.44574,321
792.56488,341
792.68396,403
792.80304,376
792.92218,346
793.041199,319
793.160339,306
793.279419,339
793.398499,318
793.517578,306
793.636658,315
793.755737,330
793.874817,353
793.993896,335
794.112976,331
794.232056,336
794.351074,326
794.470215,335
794.589233,331
794.708313,332
794.827393,329
794.946411,331
795.065552,342
795.18457,319
795.303589,339
795.422668,332
795.541687,338
795.660767,332
795.779846,335
795.898865,333
796.017883,328
796.136963,331
796.255981,336
796.375061,337
796.49408,332
796.613037,329
796.732117,332
796.851135,324
796.970154,330
797.089233,323
797.208191,325
797.327271,321
797.446228,338
797.565186,326
797.684265,326
797.803223,333
797.922241,331
798.04126,321
798.160278,330
798.279297,331
798.398315,337
798.517273,337
798.636292,332
798.75531,335
798.874268,319
798.993286,326
799.112244,329
799.231323,330
799.350281,332
799.469238,321
799.588257,341
799.707153,322
799.826111,315
799.945129,321
800.064087,323
800.183044,311
800.302063,341
800.421021,324
800.539978,325
800.658936,331
800.777893,327
800.896912,323
801.015747,331
801.134705,330
801.253723,329
801.37262,322
801.491638,326
801.610535,320
801.729492,329
801.84845,326
801.967407,327
802.086243,330
802.205261,327
802.324158,332
802.443115,339
802.562073,342
802.680969,332
802.799927,335
802.918762,325
803.037659,337
803.156677,331
803.275574,326
803.39447,335
803.513428,328
803.632263,336
803.751221,321
803.870117,346
803.989014,326
804.107971,332
804.226746,328
804.345642,336
804.4646,327
804.583496,335
804.702393,333
804.821228,343
804.940125,324
805.059021,332
805.177917,328
805.296814,334
805.415649,339
805.534546,325
805.653442,334
805.772278,322
805.891113,326
806.01001,326
806.128906,338
806.247742,340
806.366577,321
806.485413,339
806.604309,312
806.723145,324
806.84198,340
806.960876,342
807.079712,323
807.198486,333
807.317383,336
807.436218,349
807.554993,324
807.673889,321
807.792725,327
807.91156,318
808.030396,339
808.14917,323
808.268005,336
808.386841,337
808.505676,339
808.624451,322
808.743286,335
808.862122,334
808.980896,337
809.099731,343
809.218506,328
809.337341,317
809.456116,324
809.57489,335
809.693726,331
809.8125,334
809.931274,333
810.050049,333
810.168884,332
810.287659,329
810.406372,318
810.525269,339
810.643982,327
810.762756,335
810.881531,332
811.000305,337
811.11908,327
811.237854,330
811.356567,353
811.475403,338
811.594116,328
811.71283,329
811.831604,342
811.950378,339
812.069153,345
812.187927,323
812.30658,317
812.425415,353
812.544128,329
812.662781,332
812.781616,328
812.900269,336
813.019043,326
813.137756,336
813.256531,313
813.375244,347
813.493896,319
813.612671,336
813.731384,336
813.850037,338
813.96875,333
814.087524,337
814.206238,347
814.324951,328
814.443604,329
814.562256,332
814.68103,327
814.799683,332
814.918335,336
815.037109,338
815.155762,322
815.274475,329
815.393188,332
815.511841,337
815.630554,319
815.749146,334
815.867859,325
815.986572,338
816.105164,334
816.223877,331
816.342529,326
816.461182,345
816.579895,332
816.698486,332
816.817139,331
816.935791,321
817.054504,333
817.173096,329
817.291748,331
817.4104,334
817.529053,331
817.647644,340
817.766235,322
817.884949,333
818.00354,325
818.122192,324
818.240845,330
818.359436,324
818.478088,329
818.59668,329
818.715271,324
818.833923,321
818.952515,321
819.071106,334
819.189758,344
819.30835,309
819.426941,313
819.545532,315
819.664124,325
819.782715,327
819.901306,331
820.019897,312
820.138489,309
820.25708,326
820.375671,323
820.494202,324
820.612732,317
820.731384,319
820.849915,313
820.968506,315
821.087097,327
821.205627,321
821.324158,325
821.442749,309
821.561279,317
821.679871,315
821.798401,324
821.916931,326
822.035461,313
822.154053,332
822.272583,310
822.391174,322
822.509583,333
822.628174,328
822.746704,320
822.865234,325
822.983765,307
823.102295,328
823.220825,319
823.339294,314
823.457825,319
823.576355,322
823.694824,305
823.813354,325
823.931885,304
824.050354,311
824.168884,318
824.287354,312
824.405823,318
824.524353,322
824.642822,317
824.761353,313
824.879822,312
824.998291,322
825.116699,310
825.235291,326
825.353699,322
825.472168,311
825.590637,318
825.709106,331
825.827576,317
825.946045,314
826.064453,322
826.182983,318
826.301392,318
826.4198,311
826.53833,324
826.656738,317
826.775208,318
826.893677,326
827.012024,302
827.130493,326
827.248962,319
827.36731,319
827.485779,325
827.604248,319
827.722595,316
827.841064,306
827.959412,321
828.077942,314
828.196289,315
828.314636,313
828.433105,325
828.551514,317
828.669861,310
828.78833,326
828.906677,330
829.025085,323
829.143433,318
829.261841,315
829.38031,324
829.498657,328
829.617004,324
829.735413,327
829.85376,324
829.972107,312
830.090515,291
830.208862,314
830.327209,317
830.445557,308
830.563904,320
830.682312,333
830.800659,297
830.919006,321
831.037354,318
831.155701,296
831.274048,316
831.392395,313
831.51062,326
831.629028,311
831.747314,321
831.865662,319
831.984009,316
832.102356,317
832.220642,310
832.338928,324
832.457275,320
832.575623,318
832.693909,314
832.812134,320
832.930481,325
833.048828,309
833.167114,322
833.2854,340
833.403687,314
833.521973,316
833.640259,315
833.758545,317
833.876831,325
833.995056,313
834.113281,315
834.231628,313
834.349915,310
834.468201,315
834.586426,306
834.704651,318
834.822998,319
834.941162,319
835.059448,313
835.177673,331
835.295959,315
835.414246,306
835.53241,318
835.650635,314
835.768921,323
835.887146,306
836.005371,304
836.123596,327
836.241821,308
836.360046,306
836.478271,305
836.596497,309
836.714722,323
836.832886,305
836.95105,321
837.069336,317
837.1875,322
837.305725,325
837.423889,322
837.542053,322
837.660339,314
837.778503,313
837.896667,314
838.014832,329
838.132996,320
838.25116,313
838.369385,313
838.487488,308
838.605713,312
838.723877,308
838.84198,310
838.960205,320
839.078308,306
839.196472,319
839.314636,305
839.4328,324
839.550964,321
839.669067,303
839.787231,324
839.905396,319
840.023499,314
840.141602,320
840.259766,308
840.377869,315
840.495972,312
840.614136,315
840.732239,315
840.850342,319
840.968445,311
841.086548,317
841.204651,318
841.322754,324
841.440918,323
841.55896,325
841.677002,309
841.795166,314
841.913208,330
842.031311,321
842.149353,319
842.267456,319
842.385498,320
842.503601,321
842.621643,294
842.739746,319
842.857788,316
842.97583,325
843.093933,318
843.211975,312
843.330017,318
843.44812,317
843.566101,324
843.684204,316
843.802246,319
843.920227,320
844.038269,306
844.156311,314
844.274292,333
844.392395,288
844.510376,325
844.628357,324
844.74646,311
844.864441,322
844.982422,300
845.100403,321
845.218384,318
845.336426,320
845.454468,325
845.572449,316
845.69043,317
845.808411,324
845.926453,298
846.044373,300
846.162354,308
846.280396,327
846.398315,320
846.516296,337
846.634216,320
846.752197,325
846.870178,315
846.988098,318
847.106079,308
847.22406,316
847.34198,307
847.4599,321
847.577881,324
847.695801,321
847.813782,306
847.931641,308
848.049561,323
848.167603,309
848.285461,302
848.403381,316
848.521362,309
848.639221,308
848.75708,308
848.875,306
848.99292,324
849.110901,312
849.22876,316
849.34668,327
849.464539,309
849.582458,305
849.700317,309
849.818176,309
849.936096,322
850.053955,318
850.171875,313
850.289673,307
850.407593,325
850.525452,324
850.643311,304
850.761169,324
850.878967,318
850.996887,315
851.114746,313
851.232544,339
851.350403,303
851.468262,308
851.58606,308
851.703979,315
851.821777,307
851.939636,315
852.057434,323
852.175232,318
852.293091,322
852.410889,317
852.528687,319
852.646545,319
852.764343,319
852.88208,317
852.999939,301
853.117676,319
853.235535,326
853.353271,319
853.471069,314
853.588928,311
853.706604,314
853.824402,311
853.9422,321
854.059998,314
854.177734,306
854.295532,323
854.413269,314
854.531006,320
854.648804,310
854.766541,314
854.884277,323
855.002014,322
855.119751,317
855.237549,314
855.355225,311
855.473022,325
855.590698,306
855.708435,317
855.826172,319
855.943848,316
856.061646,326
856.179321,322
856.296997,313
856.414795,325
856.53241,304
856.650085,321
856.767822,309
856.885559,329
857.003174,314
857.120911,310
857.238586,324
857.356201,319
857.473938,310
857.591614,317
857.709351,320
857.826965,319
857.944641,315
858.062317,323
858.179993,311
858.297668,319
858.415283,319
858.532959,302
858.650574,328
858.768188,333
858.885803,318
859.003479,317
859.121094,308
859.23877,321
859.356384,306
859.473999,310
859.591675,327
859.709229,323
859.826843,307
859.944458,299
860.062012,315
860.179626,318
860.297302,320
860.414856,319
860.532471,318
860.650024,321
860.767639,314
860.885193,309
861.002808,311
861.120361,320
861.237976,314
861.35553,331
861.473022,297
861.590698,330
861.708191,311
861.825745,327
861.943298,317
862.060852,320
862.178406,313
862.295959,314
862.413513,308
862.531006,328
862.64856,311
862.766113,307
862.883667,314
863.00116,309
863.118713,324
863.236206,319
863.353699,318
863.471252,310
863.588745,301
863.706177,335
863.82373,306
863.941162,329
864.058716,315
864.176208,315
864.29364,309
864.411194,327
864.528687,314
864.646118,310
864.763611,308
864.881042,327
864.998535,307
865.116028,321
865.233459,314
865.350891,324
865.468384,323
865.585754,312
865.703308,323
865.820679,308
865.938171,313
866.055542,316
866.173035,324
866.290466,312
866.407837,308
866.52533,325
866.6427,313
866.760071,319
866.877563,324
866.994934,311
867.112305,325
867.229736,311
867.347107,321
867.464539,325
867.58197,315
867.699341,299
867.81665,322
867.934082,336
868.051453,323
868.168823,323
868.286194,318
868.403564,322
868.520935,325
868.638306,319
868.755676,316
868.872986,316
868.990295,325
869.107727,313
869.225037,315
869.342346,321
869.459717,314
869.577026,333
869.694336,313
869.811707,327
869.929016,325
870.046326,327
870.163635,320
870.280945,326
870.398254,325
870.515564,319
870.632812,322
870.750183,312
870.867432,300
870.984741,330
871.102051,307
871.219299,317
871.336609,324
871.453918,323
871.571106,322
871.688416,324
871.805664,308
871.922852,310
872.040222,314
872.157471,328
872.274719,313
872.391968,321
872.509155,311
872.626465,308
872.743652,310
872.860962,342
872.978149,305
873.095337,310
873.212646,322
873.329834,321
873.44696,321
873.564209,331
873.681396,314
873.798645,328
873.915894,324
874.03302,313
874.150208,309
874.267456,329
874.384583,313
874.501831,315
874.618958,306
874.736145,317
874.853333,322
874.970459,318
875.087646,318
875.204834,311
875.32196,321
875.439148,325
875.556274,307
875.673401,334
875.790527,323
875.907715,310
876.024841,310
876.141968,325
876.259094,329
876.376282,315
876.493347,326
876.610474,329
876.7276,318
876.844727,322
876.961853,321
877.078918,318
877.195984,309
877.313171,328
877.430237,322
877.547302,320
877.664368,316
877.781433,307
877.898499,319
878.015625,321
878.13269,306
878.249695,315
878.366821,317
878.483887,309
878.600952,307
878.717957,321
878.834961,311
878.952087,327
879.069092,317
879.186157,323
879.303162,308
879.420227,314
879.537231,327
879.654236,317
879.77124,312
879.888306,311
880.005249,308
880.122314,323
880.239319,314
880.356323,333
880.473328,314
880.590271,319
880.707275,309
880.824341,322
880.941284,321
881.058228,330
881.175232,314
881.292236,313
881.40918,311
881.526123,323
881.643066,320
881.760071,313
881.877014,313
881.993958,315
882.11084,312
882.227783,319
882.344727,323
882.46167,311
882.578613,321
882.695618,324
882.812439,313
882.929382,317
883.046326,317
883.163208,323
883.280151,313
883.397034,314
883.513916,312
883.630798,323
883.747742,314
883.864563,313
883.981506,324
884.098389,343
884.21521,304
884.332153,320
884.448975,321
884.565796,311
884.682678,305
884.7995,330
884.916443,311
885.033264,335
885.150085,309
885.266968,315
885.383789,309
885.500671,320
885.617493,315
885.734314,318
885.851196,311
885.967896,328
886.084717,325
886.201599,325
886.318359,309
886.435181,323
886.552002,322
886.668762,327
886.785645,317
886.902344,308
887.019165,320
887.135925,323
887.252747,323
887.369446,337
887.486267,327
887.603027,316
887.719788,312
887.836548,315
887.953247,313
888.070068,311
888.186829,313
888.303528,314
888.420288,309
888.536987,305
888.653687,320
888.770447,326
888.887146,307
889.003967,322
889.120667,321
889.237305,326
889.354065,318
889.470703,322
889.587463,305
889.704163,331
889.820862,320
889.937561,326
890.054199,313
890.170837,323
890.287598,311
890.404236,326
890.520874,314
890.637634,317
890.754211,318
890.87085,329
890.987549,327
891.104187,321
891.220886,317
891.337463,327
891.454102,314
891.57074,331
891.687378,310
891.804077,315
891.920654,313
892.037231,313
892.15387,315
892.270447,322
892.387085,324
892.503723,325
892.6203,315
892.736877,322
892.853516,314
892.970032,328
893.08667,315
893.203186,322
893.319763,312
893.43634,318
893.552917,318
893.669556,314
893.786011,311
893.902588,315
894.019165,316
894.135681,323
894.252197,316
894.368835,321
894.485291,316
894.601868,328
894.718384,316
894.8349,329
894.951355,311
895.067932,318
895.184448,311
895.300964,313
895.417419,314
895.533936,318
895.650452,316
895.766907,333
895.883423,317
895.999878,329
896.116333,323
896.232849,307
896.349304,309
896.465759,322
896.582214,331
896.698669,319
896.815125,317
896.931641,314
897.048035,309
897.164551,316
897.280884,311
897.397339,335
897.513794,316
897.630249,316
897.746582,322
897.863098,328
897.979431,310
898.095886,324
898.212341,310
898.328674,316
898.445129,321
898.561462,306
898.677795,318
898.794312,318
898.910645,311
899.026978,323
899.143433,325
899.259766,322
899.37616,327
899.492493,309
899.608765,309
899.725159,313
899.841553,323
899.957947,325
900.07428,312
900.190552,329
900.306946,316
900.423157,328
900.53949,316
900.655884,329
900.772156,321
900.888489,318
901.004822,307
901.121033,329
901.237366,302
901.353699,323
901.46991,322
901.586304,328
901.702515,312
901.818787,318
901.93512,312
902.051331,328
902.167603,306
902.283875,320
902.400085,318
902.516418,318
902.632629,311
902.74884,320
902.865112,313
902.981384,332
903.097595,311
903.213867,317
903.330017,325
903.446289,315
903.5625,318
903.67865,328
903.794922,323
903.911072,322
904.027344,314
904.143494,322
904.259705,321
904.375916,321
904.492065,320
904.608215,320
904.724426,314
904.840576,317
904.956726,304
905.072876,321
905.189087,312
905.305176,316
905.421387,319
905.537537,331
905.653687,303
905.769775,321
905.885925,325
906.002014,328
906.118164,333
906.234314,330
906.350403,323
906.466492,319
906.582642,315
906.69873,324
906.814758,314
906.930908,332
907.046936,323
907.163086,335
907.279175,317
907.395264,314
907.511353,329
907.62738,308
907.743408,320
907.859497,338
907.975525,318
908.091553,322
908.207703,321
908.32373,321
908.439758,320
908.555786,322
908.671814,329
908.787842,320
908.90387,321
909.019775,324
909.135864,310
909.251892,311
909.367859,314
909.483826,319
909.599854,308
909.715881,318
909.831848,310
909.947815,324
910.063782,309
910.179749,307
910.295776,315
910.411743,326
910.527649,307
910.643616,319
910.759583,331
910.875488,311
910.991455,318
911.107361,321
911.223267,321
911.339294,324
911.4552,308
911.571106,321
911.687073,309
911.802979,328
911.918823,325
912.034729,309
912.150635,321
912.266602,322
912.382446,320
912.498352,322
912.614197,322
912.730103,317
912.846008,326
