792.44574,317
792.56488,362
792.68396,401
792.80304,386
792.92218,349
793.041199,331
793.160339,336
793.279419,341
793.398499,337
793.517578,312
793.636658,330
793.755737,333
793.874817,360
793.993896,350
794.112976,338
794.232056,322
794.351074,327
794.470215,337
794.589233,348
794.708313,324
794.827393,339
794.946411,336
795.065552,346
795.18457,340
795.303589,338
795.422668,314
795.541687,331
795.660767,334
795.779846,332
795.898865,326
796.017883,323
796.136963,322
796.255981,323
796.375061,331
796.49408,326
796.613037,318
796.732117,327
796.851135,323
796.970154,332
797.089233,325
797.208191,318
797.327271,312
797.446228,331
797.565186,308
797.684265,331
797.803223,313
797.922241,327
798.04126,327
798.160278,323
798.279297,328
798.398315,324
798.517273,331
798.636292,329
798.75531,328
798.874268,339
798.993286,316
799.112244,327
799.231323,331
799.350281,325
799.469238,336
799.588257,332
799.707153,316
799.826111,321
799.945129,318
800.064087,323
800.183044,318
800.302063,332
800.421021,322
800.539978,332
800.658936,332
800.777893,322
800.896912,329
801.015747,327
801.134705,329
801.253723,333
801.37262,310
801.491638,325
801.610535,329
801.729492,327
801.84845,320
801.967407,328
802.086243,327
802.205261,323
802.324158,318
802.443115,324
802.562073,318
802.680969,332
802.799927,326
802.918762,317
803.037659,311
803.156677,330
803.275574,308
803.39447,319
803.513428,317
803.632263,320
803.751221,317
803.870117,327
803.989014,316
804.107971,331
804.226746,317
804.345642,313
804.4646,316
804.583496,318
804.702393,320
804.821228,326
804.940125,321
805.059021,321
805.177917,325
805.296814,324
805.415649,316
805.534546,319
805.653442,320
805.772278,319
805.891113,316
806.01001,325
806.128906,314
806.247742,328
806.366577,322
806.485413,333
806.604309,331
806.723145,332
806.84198,312
806.960876,320
807.079712,330
807.198486,333
807.317383,321
807.436218,331
807.554993,331
807.673889,326
807.792725,311
807.91156,305
808.030396,320
808.14917,336
808.268005,326
808.386841,328
808.505676,316
808.624451,318
808.743286,327
808.862122,319
808.980896,322
809.099731,325
809.218506,308
809.337341,320
809.456116,315
809.57489,326
809.693726,317
809.8125,333
809.931274,300
810.050049,332
810.168884,325
810.287659,321
810.406372,330
810.525269,326
810.643982,320
810.762756,332
810.881531,321
811.000305,327
811.11908,335
811.237854,319
811.356567,327
811.475403,321
811.594116,323
811.71283,337
811.831604,307
811.950378,329
812.069153,317
812.187927,329
812.30658,325
812.425415,317
812.544128,326
812.662781,333
812.781616,326
812.900269,319
813.019043,319
813.137756,325
813.256531,326
813.375244,325
813.493896,330
813.612671,314
813.731384,335
813.850037,321
813.96875,317
814.087524,322
814.206238,325
814.324951,314
814.443604,300
814.562256,315
814.68103,328
814.799683,301
814.918335,316
815.037109,322
815.155762,329
815.274475,327
815.393188,312
815.511841,319
815.630554,310
815.749146,322
815.867859,317
815.986572,324
816.105164,320
816.223877,329
816.342529,334
816.461182,324
816.579895,311
816.698486,318
816.817139,321
816.935791,324
817.054504,309
817.173096,325
817.291748,325
817.4104,319
817.529053,322
817.647644,328
817.766235,319
817.884949,336
818.00354,322
818.122192,314
818.240845,337
818.359436,308
818.478088,312
818.59668,304
818.715271,323
818.833923,313
818.952515,328
819.071106,321
819.189758,319
819.30835,311
819.426941,320
819.545532,311
819.664124,326
819.782715,321
819.901306,324
820.019897,314
820.138489,319
820.25708,329
820.375671,311
820.494202,313
820.612732,317
820.731384,333
820.849915,323
820.968506,324
821.087097,309
821.205627,313
821.324158,331
821.442749,317
821.561279,317
821.679871,323
821.798401,313
821.916931,317
822.035461,316
822.154053,318
822.272583,316
822.391174,309
822.509583,314
822.628174,312
822.746704,328
822.865234,314
822.983765,322
823.102295,330
823.220825,305
823.339294,327
823.457825,313
823.576355,316
823.694824,334
823.813354,331
823.931885,306
824.050354,338
824.168884,316
824.287354,320
824.405823,303
824.524353,326
824.642822,307
824.761353,331
824.879822,316
824.998291,327
825.116699,296
825.235291,328
825.353699,316
825.472168,314
825.590637,307
825.709106,319
825.827576,318
825.946045,323
826.064453,314
826.182983,322
826.301392,308
826.4198,315
826.53833,313
826.656738,323
826.775208,320
826.893677,311
827.012024,310
827.130493,319
827.248962,311
827.36731,319
827.485779,324
827.604248,325
827.722595,303
827.841064,300
827.959412,329
828.077942,320
828.196289,319
828.314636,316
828.433105,311
828.551514,310
828.669861,310
828.78833,315
828.906677,313
829.025085,330
829.143433,318
829.261841,319
829.38031,309
829.498657,306
829.617004,327
829.735413,318
829.85376,298
829.972107,321
830.090515,312
830.208862,311
830.327209,314
830.445557,315
830.563904,324
830.682312,321
830.800659,316
830.919006,324
831.037354,305
831.155701,318
831.274048,307
831.392395,319
831.51062,314
831.629028,320
831.747314,316
831.865662,334
831.984009,314
832.102356,308
832.220642,311
832.338928,324
832.457275,319
832.575623,317
832.693909,310
832.812134,321
832.930481,310
833.048828,324
833.167114,313
833.2854,322
833.403687,322
833.521973,321
833.640259,321
833.758545,318
833.876831,315
833.995056,323
834.113281,326
834.231628,333
834.349915,307
834.468201,327
834.586426,305
834.704651,318
834.822998,321
834.941162,308
835.059448,316
835.177673,318
835.295959,322
835.414246,321
835.53241,304
835.650635,331
835.768921,321
835.887146,324
836.005371,312
836.123596,330
836.241821,317
836.360046,317
836.478271,311
836.596497,315
836.714722,325
836.832886,323
836.95105,308
837.069336,319
837.1875,307
837.305725,304
837.423889,323
837.542053,307
837.660339,313
837.778503,319
837.896667,300
838.014832,326
838.132996,311
838.25116,328
838.369385,327
838.487488,321
838.605713,316
838.723877,327
838.84198,312
838.960205,321
839.078308,320
839.196472,310
839.314636,316
839.4328,315
839.550964,320
839.669067,324
839.787231,311
839.905396,335
840.023499,302
840.141602,321
840.259766,329
840.377869,322
840.495972,315
840.614136,318
840.732239,312
840.850342,313
840.968445,316
841.086548,318
841.204651,321
841.322754,321
841.440918,321
841.55896,331
841.677002,321
841.795166,319
841.913208,317
842.031311,329
842.149353,322
842.267456,318
842.385498,310
842.503601,319
842.621643,314
842.739746,320
842.857788,322
842.97583,323
843.093933,304
843.211975,314
843.330017,322
843.44812,327
843.566101,317
843.684204,325
843.802246,327
843.920227,311
844.038269,306
844.156311,330
844.274292,308
844.392395,325
844.510376,311
844.628357,307
844.74646,320
844.864441,325
844.982422,319
845.100403,320
845.218384,314
845.336426,322
845.454468,305
845.572449,308
845.69043,326
845.808411,320
845.926453,313
846.044373,317
846.162354,307
846.280396,331
846.398315,312
846.516296,313
846.634216,309
846.752197,333
846.870178,315
846.988098,318
847.106079,320
847.22406,320
847.34198,314
847.4599,314
847.577881,317
847.695801,324
847.813782,316
847.931641,324
848.049561,322
848.167603,315
848.285461,315
848.403381,319
848.521362,320
848.639221,315
848.75708,322
848.875,319
848.99292,310
849.110901,325
849.22876,325
849.34668,315
849.464539,313
849.582458,324
849.700317,332
849.818176,331
849.936096,324
850.053955,315
850.171875,311
850.289673,324
850.407593,337
850.525452,321
850.643311,315
850.761169,303
850.878967,323
850.996887,326
851.114746,320
851.232544,316
851.350403,326
851.468262,332
851.58606,318
851.703979,327
851.821777,325
851.939636,306
852.057434,313
852.175232,326
852.293091,309
852.410889,311
852.528687,311
852.646545,319
852.764343,310
852.88208,314
852.999939,314
853.117676,317
853.235535,324
853.353271,316
853.471069,313
853.588928,314
853.706604,307
853.824402,332
853.9422,306
854.059998,319
854.177734,315
854.295532,318
854.413269,314
854.531006,304
854.648804,321
854.766541,321
854.884277,307
855.002014,335
855.119751,321
855.237549,318
855.355225,312
855.473022,312
855.590698,300
855.708435,323
855.826172,305
855.943848,317
856.061646,318
856.179321,332
856.296997,320
856.414795,326
856.53241,297
856.650085,326
856.767822,312
856.885559,311
857.003174,312
857.120911,318
857.238586,320
857.356201,324
857.473938,330
857.591614,321
857.709351,306
857.826965,318
857.944641,318
858.062317,321
858.179993,317
858.297668,307
858.415283,313
858.532959,324
858.650574,316
858.768188,328
858.885803,312
859.003479,317
859.121094,326
859.23877,316
859.356384,317
859.473999,326
859.591675,316
859.709229,318
859.826843,314
859.944458,319
860.062012,334
860.179626,327
860.297302,309
860.414856,322
860.532471,316
860.650024,333
860.767639,316
860.885193,320
861.002808,332
861.120361,340
861.237976,315
861.35553,326
861.473022,320
861.590698,328
861.708191,318
861.825745,315
861.943298,328
862.060852,335
862.178406,322
862.295959,317
862.413513,321
862.531006,314
862.64856,308
862.766113,319
862.883667,315
863.00116,320
863.118713,317
863.236206,319
863.353699,317
863.471252,319
863.588745,310
863.706177,313
863.82373,314
863.941162,317
864.058716,311
864.176208,308
864.29364,312
864.411194,322
864.528687,312
864.646118,322
864.763611,311
864.881042,313
864.998535,322
865.116028,325
865.233459,315
865.350891,324
865.468384,317
865.585754,309
865.703308,316
865.820679,313
865.938171,328
866.055542,313
866.173035,316
866.290466,321
866.407837,316
866.52533,326
866.6427,323
866.760071,323
866.877563,321
866.994934,317
867.112305,316
867.229736,315
867.347107,320
867.464539,304
867.58197,317
867.699341,340
867.81665,301
867.934082,334
868.051453,314
868.168823,315
868.286194,311
868.403564,305
868.520935,331
868.638306,312
868.755676,296
868.872986,317
868.990295,315
869.107727,313
869.225037,331
869.342346,324
869.459717,317
869.577026,318
869.694336,315
869.811707,327
869.929016,330
870.046326,332
870.163635,312
870.280945,325
870.398254,318
870.515564,320
870.632812,309
870.750183,316
870.867432,316
870.984741,310
871.102051,318
871.219299,338
871.336609,312
871.453918,313
871.571106,323
871.688416,337
871.805664,321
871.922852,325
872.040222,323
872.157471,324
872.274719,313
872.391968,322
872.509155,306
872.626465,324
872.743652,313
872.860962,328
872.978149,316
873.095337,327
873.212646,314
873.329834,331
873.44696,318
873.564209,321
873.681396,324
873.798645,323
873.915894,313
874.03302,328
874.150208,313
874.267456,315
874.384583,321
874.501831,329
874.618958,323
874.736145,321
874.853333,321
874.970459,320
875.087646,317
875.204834,304
875.32196,308
875.439148,311
875.556274,325
875.673401,318
875.790527,318
875.907715,312
876.024841,310
876.141968,326
876.259094,317
876.376282,316
876.493347,314
876.610474,313
876.7276,317
876.844727,315
876.961853,312
877.078918,323
877.195984,318
877.313171,321
877.430237,315
877.547302,318
877.664368,321
877.781433,317
877.898499,314
878.015625,332
878.13269,323
878.249695,329
878.366821,314
878.483887,309
878.600952,329
878.717957,315
878.834961,305
878.952087,316
879.069092,307
879.186157,321
879.303162,309
879.420227,328
879.537231,312
879.654236,327
879.77124,316
879.888306,306
880.005249,320
880.122314,313
880.239319,331
880.356323,311
880.473328,293
880.590271,321
880.707275,305
880.824341,326
880.941284,310
881.058228,324
881.175232,297
881.292236,313
881.40918,316
881.526123,315
881.643066,310
881.760071,311
881.877014,304
881.993958,323
882.11084,317
882.227783,317
882.344727,316
882.46167,312
882.578613,306
882.695618,312
882.812439,310
882.929382,324
883.046326,307
883.163208,312
883.280151,312
883.397034,317
883.513916,320
883.630798,298
883.747742,308
883.864563,332
883.981506,316
884.098389,313
884.21521,306
884.332153,317
884.448975,314
884.565796,312
884.682678,323
884.7995,326
884.916443,323
885.033264,318
885.150085,328
885.266968,313
885.383789,318
885.500671,321
885.617493,328
885.734314,317
885.851196,329
885.967896,327
886.084717,321
886.201599,333
886.318359,323
886.435181,325
886.552002,310
886.668762,330
886.785645,319
886.902344,329
887.019165,325
887.135925,317
887.252747,323
887.369446,328
887.486267,320
887.603027,324
887.719788,317
887.836548,317
887.953247,311
888.070068,319
888.186829,301
888.303528,316
888.420288,341
888.536987,316
888.653687,310
888.770447,318
888.887146,325
889.003967,325
889.120667,307
889.237305,309
889.354065,316
889.470703,320
889.587463,319
889.704163,318
889.820862,312
889.937561,319
890.054199,305
890.170837,313
890.287598,299
890.404236,310
890.520874,313
890.637634,306
890.754211,314
890.87085,322
890.987549,312
891.104187,320
891.220886,319
891.337463,321
891.454102,325
891.57074,319
891.687378,318
891.804077,311
891.920654,311
892.037231,319
892.15387,323
892.270447,323
892.387085,311
892.503723,316
892.6203,328
892.736877,313
892.853516,320
892.970032,310
893.08667,308
893.203186,321
893.319763,315
893.43634,316
893.552917,303
893.669556,330
893.786011,309
893.902588,311
894.019165,307
894.135681,315
894.252197,313
894.368835,304
894.485291,310
894.601868,321
894.718384,327
894.8349,326
894.951355,314
895.067932,311
895.184448,314
895.300964,323
895.417419,325
895.533936,318
895.650452,331
895.766907,322
895.883423,317
895.999878,325
896.116333,302
896.232849,320
896.349304,301
896.465759,334
896.582214,319
896.698669,330
896.815125,311
896.931641,314
897.048035,317
897.164551,317
897.280884,329
897.397339,321
897.513794,323
897.630249,321
897.746582,332
897.863098,315
897.979431,320
898.095886,327
898.212341,306
898.328674,316
898.445129,315
898.561462,318
898.677795,307
898.794312,317
898.910645,319
899.026978,323
899.143433,320
899.259766,331
899.37616,322
899.492493,319
899.608765,306
899.725159,325
899.841553,315
899.957947,322
900.07428,321
900.190552,314
900.306946,307
900.423157,319
900.53949,307
900.655884,320
900.772156,310
900.888489,312
901.004822,316
901.121033,327
901.237366,311
901.353699,326
901.46991,323
901.586304,324
901.702515,316
901.818787,327
901.93512,322
902.051331,309
902.167603,314
902.283875,321
902.400085,316
902.516418,333
902.632629,303
902.74884,325
902.865112,307
902.981384,310
903.097595,310
903.213867,325
903.330017,320
903.446289,304
903.5625,323
903.67865,318
903.794922,318
903.911072,321
904.027344,307
904.143494,313
904.259705,310
904.375916,318
904.492065,317
904.608215,312
904.724426,313
904.840576,328
904.956726,304
905.072876,306
905.189087,301
905.305176,321
905.421387,297
905.537537,308
905.653687,305
905.769775,323
905.885925,321
906.002014,307
906.118164,318
906.234314,323
906.350403,321
906.466492,326
906.582642,311
906.69873,316
906.814758,328
906.930908,312
907.046936,305
907.163086,327
907.279175,318
907.395264,321
907.511353,310
907.62738,329
907.743408,323
907.859497,334
907.975525,322
908.091553,311
908.207703,328
908.32373,315
908.439758,304
908.555786,325
908.671814,301
908.787842,322
908.90387,314
909.019775,319
909.135864,313
909.251892,321
909.367859,310
909.483826,312
909.599854,308
909.715881,328
909.831848,304
909.947815,319
910.063782,318
910.179749,320
910.295776,310
910.411743,313
910.527649,317
910.643616,314
910.759583,307
910.875488,327
910.991455,322
911.107361,312
911.223267,317
911.339294,316
911.4552,310
911.571106,322
911.687073,313
911.802979,317
911.918823,310
912.034729,330
912.150635,300
912.266602,313
912.382446,316
912.498352,316
912.614197,318
912.730103,323
912.846008,306
792.44574,334
792.56488,364
792.68396,391
792.80304,387
792.92218,336
793.041199,327
793.160339,317
793.279419,344
793.398499,338
793.517578,320
793.636658,322
793.755737,335
793.874817,344
793.993896,359
794.112976,332
794.232056,329
794.351074,331
794.470215,332
794.589233,345
794.708313,318
794.827393,332
794.946411,343
795.065552,345
795.18457,326
795.303589,338
795.422668,329
795.541687,328
795.660767,320
795.779846,318
795.898865,333
796.017883,315
796.136963,333
796.255981,330
796.375061,335
796.49408,336
796.613037,329
796.732117,329
796.851135,325
796.970154,332
797.089233,332
797.208191,318
797.327271,330
797.446228,327
797.565186,316
797.684265,322
797.803223,331
797.922241,331
798.04126,319
798.160278,319
798.279297,332
798.398315,329
798.517273,324
798.636292,321
798.75531,317
798.874268,323
798.993286,324
799.112244,320
799.231323,335
799.350281,320
799.469238,341
799.588257,313
799.707153,337
799.826111,322
799.945129,323
800.064087,326
800.183044,315
800.302063,326
800.421021,328
800.539978,328
800.658936,332
800.777893,323
800.896912,317
801.015747,322
801.134705,312
801.253723,323
801.37262,324
801.491638,328
801.610535,311
801.729492,320
801.84845,332
801.967407,323
802.086243,316
802.205261,325
802.324158,315
802.443115,335
802.562073,321
802.680969,323
802.799927,332
802.918762,312
803.037659,320
803.156677,320
803.275574,316
803.39447,330
803.513428,325
803.632263,327
803.751221,316
803.870117,317
803.989014,334
804.107971,325
804.226746,317
804.345642,327
804.4646,318
804.583496,334
804.702393,326
804.821228,323
804.940125,316
805.059021,322
805.177917,331
805.296814,334
805.415649,323
805.534546,315
805.653442,328
805.772278,319
805.891113,321
806.01001,323
806.128906,329
806.247742,325
806.366577,324
806.485413,326
806.604309,332
806.723145,330
806.84198,312
806.960876,304
807.079712,314
807.198486,324
807.317383,314
807.436218,319
807.554993,309
807.673889,326
807.792725,315
807.91156,328
808.030396,328
808.14917,335
808.268005,321
808.386841,302
808.505676,316
808.624451,314
808.743286,324
808.862122,316
808.980896,343
809.099731,328
809.218506,309
809.337341,321
809.456116,313
809.57489,321
809.693726,322
809.8125,341
809.931274,315
810.050049,322
810.168884,328
810.287659,329
810.406372,335
810.525269,325
810.643982,321
810.762756,324
810.881531,323
811.000305,330
811.11908,340
811.237854,312
811.356567,331
811.475403,316
811.594116,314
811.71283,324
811.831604,327
811.950378,331
812.069153,327
812.187927,317
812.30658,318
812.425415,321
812.544128,326
812.662781,326
812.781616,304
812.900269,329
813.019043,316
813.137756,334
813.256531,319
813.375244,309
813.493896,324
813.612671,315
813.731384,315
813.850037,329
813.96875,324
814.087524,315
814.206238,326
814.324951,318
814.443604,320
814.562256,329
814.68103,323
814.799683,310
814.918335,317
815.037109,321
815.155762,324
815.274475,314
815.393188,326
815.511841,316
815.630554,324
815.749146,324
815.867859,327
815.986572,309
816.105164,321
816.223877,328
816.342529,326
816.461182,321
816.579895,323
816.698486,331
816.817139,319
816.935791,318
817.054504,325
817.173096,304
817.291748,330
817.4104,319
817.529053,330
817.647644,319
817.766235,319
817.884949,318
818.00354,320
818.122192,311
818.240845,313
818.359436,320
818.478088,323
818.59668,322
818.715271,320
818.833923,316
818.952515,325
819.071106,314
819.189758,328
819.30835,305
819.426941,321
819.545532,310
819.664124,331
819.782715,323
819.901306,317
820.019897,328
820.138489,307
820.25708,313
820.375671,313
820.494202,322
820.612732,323
820.731384,315
820.849915,325
820.968506,313
821.087097,327
821.205627,331
821.324158,328
821.442749,317
821.561279,317
821.679871,309
821.798401,309
821.916931,323
822.035461,322
822.154053,312
822.272583,321
822.391174,317
822.509583,327
822.628174,317
822.746704,315
822.865234,315
822.983765,322
823.102295,325
823.220825,330
823.339294,310
823.457825,322
823.576355,314
823.694824,321
823.813354,312
823.931885,321
824.050354,302
824.168884,317
824.287354,312
824.405823,316
824.524353,324
824.642822,303
824.761353,314
824.879822,323
824.998291,320
825.116699,312
825.235291,319
825.353699,322
825.472168,317
825.590637,331
825.709106,301
825.827576,304
825.946045,322
826.064453,307
826.182983,308
826.301392,317
826.4198,315
826.53833,310
826.656738,315
826.775208,302
826.893677,322
827.012024,302
827.130493,331
827.248962,310
827.36731,324
827.485779,318
827.604248,311
827.722595,337
827.841064,311
827.959412,323
828.077942,318
828.196289,314
828.314636,322
828.433105,321
828.551514,314
828.669861,310
828.78833,302
828.906677,305
829.025085,307
829.143433,320
829.261841,315
829.38031,304
829.498657,325
829.617004,327
829.735413,312
829.85376,327
829.972107,313
830.090515,316
830.208862,320
830.327209,333
830.445557,320
830.563904,322
830.682312,324
830.800659,317
830.919006,310
831.037354,307
831.155701,320
831.274048,328
831.392395,308
831.51062,313
831.629028,309
831.747314,312
831.865662,319
831.984009,332
832.102356,317
832.220642,327
832.338928,309
832.457275,316
832.575623,306
832.693909,327
832.812134,319
832.930481,328
833.048828,304
833.167114,326
833.2854,317
833.403687,321
833.521973,322
833.640259,323
833.758545,311
833.876831,312
833.995056,311
834.113281,318
834.231628,304
834.349915,326
834.468201,309
834.586426,328
834.704651,322
834.822998,326
834.941162,322
835.059448,311
835.177673,320
835.295959,326
835.414246,293
835.53241,323
835.650635,321
835.768921,323
835.887146,314
836.005371,322
836.123596,324
836.241821,299
836.360046,325
836.478271,303
836.596497,313
836.714722,321
836.832886,329
836.95105,319
837.069336,302
837.1875,312
837.305725,321
837.423889,327
837.542053,314
837.660339,311
837.778503,309
837.896667,315
838.014832,314
838.132996,328
838.25116,311
838.369385,307
838.487488,311
838.605713,319
838.723877,322
838.84198,321
838.960205,318
839.078308,332
839.196472,318
839.314636,316
839.4328,314
839.550964,310
839.669067,302
839.787231,328
839.905396,321
840.023499,319
840.141602,322
840.259766,309
840.377869,330
840.495972,315
840.614136,310
840.732239,318
840.850342,326
840.968445,326
841.086548,317
841.204651,308
841.322754,313
841.440918,318
841.55896,334
841.677002,312
841.795166,316
841.913208,334
842.031311,323
842.149353,312
842.267456,320
842.385498,314
842.503601,296
842.621643,321
842.739746,310
842.857788,309
842.97583,317
843.093933,315
843.211975,311
843.330017,317
843.44812,313
843.566101,319
843.684204,318
843.802246,308
843.920227,313
844.038269,328
844.156311,317
844.274292,322
844.392395,316
844.510376,320
844.628357,320
844.74646,333
844.864441,311
844.982422,325
845.100403,314
845.218384,323
845.336426,305
845.454468,324
845.572449,305
845.69043,329
845.808411,322
845.926453,311
846.044373,333
846.162354,298
846.280396,320
846.398315,327
846.516296,303
846.634216,322
846.752197,308
846.870178,313
846.988098,328
847.106079,321
847.22406,309
847.34198,312
847.4599,317
847.577881,315
847.695801,316
847.813782,324
847.931641,323
848.049561,326
848.167603,313
848.285461,320
848.403381,312
848.521362,318
848.639221,315
848.75708,332
848.875,299
848.99292,309
849.110901,318
849.22876,317
849.34668,301
849.464539,318
849.582458,315
849.700317,314
849.818176,326
849.936096,314
850.053955,320
850.171875,324
850.289673,307
850.407593,325
850.525452,306
850.643311,326
850.761169,321
850.878967,327
850.996887,302
851.114746,322
851.232544,319
851.350403,313
851.468262,325
851.58606,326
851.703979,313
851.821777,312
851.939636,313
852.057434,311
852.175232,314
852.293091,324
852.410889,330
852.528687,321
852.646545,314
852.764343,330
852.88208,319
852.999939,320
853.117676,308
853.235535,309
853.353271,316
853.471069,331
853.588928,314
853.706604,324
853.824402,324
853.9422,326
854.059998,321
854.177734,324
854.295532,315
854.413269,322
854.531006,326
854.648804,321
854.766541,321
854.884277,321
855.002014,302
855.119751,323
855.237549,313
855.355225,330
855.473022,316
855.590698,320
855.708435,319
855.826172,307
855.943848,314
856.061646,310
856.179321,319
856.296997,311
856.414795,318
856.53241,325
856.650085,308
856.767822,322
856.885559,318
857.003174,327
857.120911,325
857.238586,318
857.356201,313
857.473938,322
857.591614,320
857.709351,322
857.826965,321
857.944641,315
858.062317,334
858.179993,321
858.297668,303
858.415283,316
858.532959,320
858.650574,307
858.768188,319
858.885803,330
859.003479,315
859.121094,314
859.23877,318
859.356384,309
859.473999,321
859.591675,314
859.709229,319
859.826843,324
859.944458,311
860.062012,322
860.179626,306
860.297302,317
860.414856,321
860.532471,325
860.650024,324
860.767639,316
860.885193,319
861.002808,319
861.120361,311
861.237976,323
861.35553,336
861.473022,330
861.590698,317
861.708191,315
861.825745,310
861.943298,322
862.060852,299
862.178406,325
862.295959,321
862.413513,312
862.531006,303
862.64856,317
862.766113,322
862.883667,314
863.00116,313
863.118713,317
863.236206,316
863.353699,311
863.471252,320
863.588745,323
863.706177,319
863.82373,319
863.941162,320
864.058716,316
864.176208,305
864.29364,318
864.411194,308
864.528687,312
864.646118,311
864.763611,322
864.881042,315
864.998535,319
865.116028,310
865.233459,315
865.350891,318
865.468384,317
865.585754,311
865.703308,322
865.820679,323
865.938171,315
866.055542,316
866.173035,322
866.290466,314
866.407837,313
866.52533,318
866.6427,326
866.760071,325
866.877563,309
866.994934,313
867.112305,312
867.229736,314
867.347107,315
867.464539,326
867.58197,319
867.699341,305
867.81665,305
867.934082,309
868.051453,317
868.168823,314
868.286194,326
868.403564,312
868.520935,320
868.638306,332
868.755676,322
868.872986,317
868.990295,318
869.107727,315
869.225037,321
869.342346,321
869.459717,324
869.577026,310
869.694336,316
869.811707,319
869.929016,316
870.046326,307
870.163635,328
870.280945,321
870.398254,320
870.515564,311
870.632812,314
870.750183,325
870.867432,320
870.984741,320
871.102051,331
871.219299,310
871.336609,323
871.453918,313
871.571106,336
871.688416,318
871.805664,317
871.922852,319
872.040222,319
872.157471,328
872.274719,328
872.391968,304
872.509155,322
872.626465,314
872.743652,319
872.860962,319
872.978149,315
873.095337,303
873.212646,327
873.329834,308
873.44696,325
873.564209,317
873.681396,319
873.798645,310
873.915894,312
874.03302,316
874.150208,318
874.267456,316
874.384583,317
874.501831,329
874.618958,322
874.736145,310
874.853333,319
874.970459,311
875.087646,335
875.204834,316
875.32196,314
875.439148,314
875.556274,327
875.673401,315
875.790527,315
875.907715,301
876.024841,326
876.141968,301
876.259094,322
876.376282,320
876.493347,315
876.610474,321
876.7276,315
876.844727,322
876.961853,314
877.078918,317
877.195984,316
877.313171,319
877.430237,318
877.547302,312
877.664368,305
877.781433,308
877.898499,322
878.015625,311
878.13269,317
878.249695,311
878.366821,320
878.483887,317
878.600952,320
878.717957,311
878.834961,320
878.952087,322
879.069092,308
879.186157,308
879.303162,323
879.420227,319
879.537231,312
879.654236,313
879.77124,322
879.888306,308
880.005249,320
880.122314,307
880.239319,316
880.356323,307
880.473328,320
880.590271,306
880.707275,331
880.824341,319
880.941284,311
881.058228,321
881.175232,330
881.292236,320
881.40918,307
881.526123,329
881.643066,319
881.760071,308
881.877014,322
881.993958,303
882.11084,322
882.227783,329
882.344727,301
882.46167,325
882.578613,319
882.695618,319
882.812439,321
882.929382,333
883.046326,314
883.163208,327
883.280151,319
883.397034,312
883.513916,302
883.630798,333
883.747742,320
883.864563,329
883.981506,321
884.098389,316
884.21521,308
884.332153,319
884.448975,336
884.565796,319
884.682678,320
884.7995,322
884.916443,315
885.033264,318
885.150085,318
885.266968,324
885.383789,321
885.500671,312
885.617493,309
885.734314,328
885.851196,322
885.967896,324
886.084717,308
886.201599,313
886.318359,322
886.435181,322
886.552002,322
886.668762,326
886.785645,328
886.902344,322
887.019165,306
887.135925,313
887.252747,321
887.369446,316
887.486267,318
887.603027,317
887.719788,320
887.836548,319
887.953247,326
888.070068,330
888.186829,319
888.303528,330
888.420288,310
888.536987,326
888.653687,317
888.770447,310
888.887146,307
889.003967,300
889.120667,309
889.237305,317
889.354065,296
889.470703,322
889.587463,323
889.704163,331
889.820862,313
889.937561,311
890.054199,314
890.170837,330
890.287598,316
890.404236,316
890.520874,317
890.637634,322
890.754211,309
890.87085,308
890.987549,323
891.104187,314
891.220886,311
891.337463,303
891.454102,324
891.57074,307
891.687378,316
891.804077,330
891.920654,328
892.037231,318
892.15387,317
892.270447,304
892.387085,311
892.503723,313
892.6203,316
892.736877,301
892.853516,322
892.970032,311
893.08667,311
893.203186,323
893.319763,323
893.43634,313
893.552917,313
893.669556,316
893.786011,312
893.902588,301
894.019165,314
894.135681,304
894.252197,317
894.368835,309
894.485291,315
894.601868,307
894.718384,308
894.8349,320
894.951355,315
895.067932,316
895.184448,321
895.300964,308
895.417419,320
895.533936,320
895.650452,325
895.766907,317
895.883423,333
895.999878,317
896.116333,316
896.232849,310
896.349304,317
896.465759,325
896.582214,316
896.698669,301
896.815125,316
896.931641,318
897.048035,317
897.164551,308
897.280884,314
897.397339,319
897.513794,326
897.630249,329
897.746582,305
897.863098,316
897.979431,329
898.095886,299
898.212341,311
898.328674,298
898.445129,342
898.561462,316
898.677795,313
898.794312,300
898.910645,302
899.026978,318
899.143433,317
899.259766,316
899.37616,321
899.492493,315
899.608765,312
899.725159,304
899.841553,312
899.957947,318
900.07428,321
900.190552,313
900.306946,311
900.423157,317
900.53949,323
900.655884,319
900.772156,330
900.888489,314
901.004822,311
901.121033,308
901.237366,322
901.353699,313
901.46991,326
901.586304,305
901.702515,322
901.818787,308
901.93512,338
902.051331,322
902.167603,321
902.283875,316
902.400085,312
902.516418,321
902.632629,333
902.74884,315
902.865112,309
902.981384,316
903.097595,330
903.213867,312
903.330017,313
903.446289,313
903.5625,311
903.67865,330
903.794922,322
903.911072,305
904.027344,332
904.143494,324
904.259705,316
904.375916,326
904.492065,312
904.608215,316
904.724426,330
904.840576,313
904.956726,325
905.072876,312
905.189087,316
905.305176,318
905.421387,319
905.537537,319
905.653687,311
905.769775,331
905.885925,327
906.002014,320
906.118164,326
906.234314,316
906.350403,322
906.466492,323
906.582642,331
906.69873,322
906.814758,325
906.930908,308
907.046936,320
907.163086,310
907.279175,316
907.395264,313
907.511353,321
907.62738,319
907.743408,315
907.859497,305
907.975525,327
908.091553,315
908.207703,315
908.32373,309
908.439758,325
908.555786,307
908.671814,303
908.787842,312
908.90387,324
909.019775,318
909.135864,333
909.251892,312
909.367859,311
909.483826,326
909.599854,312
909.715881,321
909.831848,313
909.947815,318
910.063782,327
910.179749,312
910.295776,316
910.411743,313
910.527649,309
910.643616,303
910.759583,313
910.875488,312
910.991455,318
911.107361,323
911.223267,320
911.339294,306
911.4552,324
911.571106,316
911.687073,321
911.802979,320
911.918823,329
912.034729,314
912.150635,326
912.266602,303
912.382446,309
912.498352,322
912.614197,324
912.730103,322
912.846008,326
792.44574,326
792.56488,357
792.68396,402
792.80304,389
792.92218,326
793.041199,336
793.160339,329
793.279419,344
793.398499,351
793.517578,319
793.636658,307
793.755737,341
793.874817,349
793.993896,344
794.112976,350
794.232056,327
794.351074,334
794.470215,346
794.589233,337
794.708313,334
794.827393,319
794.946411,333
795.065552,333
795.18457,325
795.303589,328
795.422668,337
795.541687,334
795.660767,333
795.779846,337
795.898865,324
796.017883,312
796.136963,325
796.255981,332
796.375061,329
796.49408,331
796.613037,344
796.732117,328
796.851135,338
796.970154,329
797.089233,335
797.208191,336
797.327271,316
797.446228,324
797.565186,339
797.684265,332
797.803223,326
797.922241,314
798.04126,338
798.160278,328
798.279297,336
798.398315,319
798.517273,329
798.636292,329
798.75531,328
798.874268,335
798.993286,323
799.112244,328
799.231323,333
799.350281,325
799.469238,318
799.588257,333
799.707153,332
799.826111,317
799.945129,325
800.064087,329
800.183044,321
800.302063,332
800.421021,333
800.539978,330
800.658936,319
800.777893,321
800.896912,333
801.015747,328
801.134705,327
801.253723,333
801.37262,324
801.491638,321
801.610535,327
801.729492,331
801.84845,327
801.967407,323
802.086243,333
802.205261,314
802.324158,327
802.443115,318
802.562073,331
802.680969,334
802.799927,321
802.918762,324
803.037659,321
803.156677,315
803.275574,326
803.39447,324
803.513428,317
803.632263,330
803.751221,333
803.870117,334
803.989014,323
804.107971,331
804.226746,310
804.345642,329
804.4646,316
804.583496,326
804.702393,326
804.821228,323
804.940125,317
805.059021,329
805.177917,309
805.296814,330
805.415649,325
805.534546,324
805.653442,322
805.772278,321
805.891113,319
806.01001,326
806.128906,318
806.247742,327
806.366577,326
806.485413,330
806.604309,324
806.723145,330
806.84198,317
806.960876,326
807.079712,321
807.198486,323
807.317383,318
807.436218,318
807.554993,314
807.673889,310
807.792725,319
807.91156,311
808.030396,312
808.14917,338
808.268005,314
808.386841,335
808.505676,319
808.624451,322
808.743286,325
808.862122,311
808.980896,325
809.099731,311
809.218506,323
809.337341,328
809.456116,313
809.57489,326
809.693726,330
809.8125,321
809.931274,318
810.050049,328
810.168884,312
810.287659,317
810.406372,327
810.525269,322
810.643982,307
810.762756,335
810.881531,326
811.000305,322
811.11908,317
811.237854,333
811.356567,324
811.475403,330
811.594116,319
811.71283,321
811.831604,311
811.950378,319
812.069153,310
812.187927,321
812.30658,325
812.425415,303
812.544128,317
812.662781,340
812.781616,315
812.900269,338
813.019043,322
813.137756,318
813.256531,316
813.375244,317
813.493896,315
813.612671,325
813.731384,328
813.850037,315
813.96875,331
814.087524,317
814.206238,323
814.324951,311
814.443604,331
814.562256,318
814.68103,314
814.799683,305
814.918335,331
815.037109,315
815.155762,319
815.274475,323
815.393188,325
815.511841,324
815.630554,331
815.749146,323
815.867859,335
815.986572,313
816.105164,324
816.223877,319
816.342529,333
816.461182,319
816.579895,337
816.698486,317
816.817139,314
816.935791,342
817.054504,327
817.173096,320
817.291748,322
817.4104,322
817.529053,323
817.647644,318
817.766235,317
817.884949,314
818.00354,312
818.122192,312
818.240845,325
818.359436,312
818.478088,328
818.59668,324
818.715271,323
818.833923,315
818.952515,325
819.071106,313
819.189758,319
819.30835,324
819.426941,322
819.545532,319
819.664124,321
819.782715,316
819.901306,326
820.019897,319
820.138489,307
820.25708,331
820.375671,323
820.494202,301
820.612732,319
820.731384,308
820.849915,317
820.968506,315
821.087097,316
821.205627,325
821.324158,315
821.442749,334
821.561279,311
821.679871,320
821.798401,329
821.916931,319
822.035461,313
822.154053,326
822.272583,322
822.391174,311
822.509583,314
822.628174,325
822.746704,319
822.865234,316
822.983765,319
823.102295,326
823.220825,320
823.339294,318
823.457825,326
823.576355,320
823.694824,319
823.813354,320
823.931885,318
824.050354,313
824.168884,319
824.287354,324
824.405823,302
824.524353,313
824.642822,309
824.761353,321
824.879822,315
824.998291,319
825.116699,314
825.235291,338
825.353699,313
825.472168,315
825.590637,318
825.709106,320
825.827576,320
825.946045,308
826.064453,314
826.182983,315
826.301392,329
826.4198,330
826.53833,314
826.656738,310
826.775208,325
826.893677,305
827.012024,325
827.130493,319
827.248962,318
827.36731,312
827.485779,314
827.604248,313
827.722595,317
827.841064,323
827.959412,318
828.077942,320
828.196289,322
828.314636,327
828.433105,310
828.551514,323
828.669861,322
828.78833,321
828.906677,317
829.025085,324
829.143433,321
829.261841,314
829.38031,318
829.498657,305
829.617004,316
829.735413,324
829.85376,299
829.972107,313
830.090515,332
830.208862,312
830.327209,320
830.445557,315
830.563904,313
830.682312,318
830.800659,323
830.919006,304
831.037354,306
831.155701,309
831.274048,322
831.392395,303
831.51062,325
831.629028,318
831.747314,319
831.865662,317
831.984009,323
832.102356,322
832.220642,327
832.338928,324
832.457275,324
832.575623,305
832.693909,323
832.812134,319
832.930481,322
833.048828,305
833.167114,321
833.2854,309
833.403687,319
833.521973,305
833.640259,318
833.758545,308
833.876831,315
833.995056,319
834.113281,321
834.231628,308
834.349915,332
834.468201,308
834.586426,324
834.704651,318
834.822998,312
834.941162,313
835.059448,321
835.177673,312
835.295959,311
835.414246,325
835.53241,301
835.650635,315
835.768921,313
835.887146,321
836.005371,309
836.123596,332
836.241821,318
836.360046,308
836.478271,327
836.596497,328
836.714722,318
836.832886,315
836.95105,319
837.069336,317
837.1875,317
837.305725,314
837.423889,321
837.542053,319
837.660339,319
837.778503,324
837.896667,317
838.014832,331
838.132996,312
838.25116,329
838.369385,326
838.487488,309
838.605713,329
838.723877,315
838.84198,332
838.960205,311
839.078308,318
839.196472,324
839.314636,313
839.4328,324
839.550964,330
839.669067,318
839.787231,323
839.905396,323
840.023499,320
840.141602,316
840.259766,327
840.377869,306
840.495972,311
840.614136,318
840.732239,316
840.850342,308
840.968445,317
841.086548,310
841.204651,323
841.322754,325
841.440918,320
841.55896,332
841.677002,330
841.795166,320
841.913208,324
842.031311,316
842.149353,322
842.267456,320
842.385498,333
842.503601,315
842.621643,311
842.739746,307
842.857788,320
842.97583,314
843.093933,312
843.211975,316
843.330017,329
843.44812,301
843.566101,317
843.684204,334
843.802246,315
843.920227,316
844.038269,318
844.156311,314
844.274292,319
844.392395,307
844.510376,332
844.628357,312
844.74646,335
844.864441,314
844.982422,317
845.100403,309
845.218384,310
845.336426,316
845.454468,312
845.572449,329
845.69043,321
845.808411,310
845.926453,321
846.044373,334
846.162354,320
846.280396,319
846.398315,307
846.516296,310
846.634216,313
846.752197,301
846.870178,308
846.988098,326
847.106079,309
847.22406,326
847.34198,321
847.4599,316
847.577881,320
847.695801,309
847.813782,320
847.931641,307
848.049561,321
848.167603,310
848.285461,318
848.403381,321
848.521362,309
848.639221,316
848.75708,322
848.875,314
848.99292,319
849.110901,315
849.22876,319
849.34668,320
849.464539,313
849.582458,318
849.700317,310
849.818176,315
849.936096,320
850.053955,306
850.171875,325
850.289673,314
850.407593,322
850.525452,317
850.643311,316
850.761169,319
850.878967,313
850.996887,316
851.114746,324
851.232544,323
851.350403,314
851.468262,312
851.58606,322
851.703979,313
851.821777,318
851.939636,310
852.057434,319
852.175232,308
852.293091,300
852.410889,312
852.528687,318
852.646545,318
852.764343,329
852.88208,309
852.999939,329
853.117676,314
853.235535,316
853.353271,321
853.471069,325
853.588928,304
853.706604,313
853.824402,320
853.9422,316
854.059998,313
854.177734,315
854.295532,306
854.413269,331
854.531006,314
854.648804,319
854.766541,325
854.884277,309
855.002014,323
855.119751,318
855.237549,314
855.355225,324
855.473022,318
855.590698,322
855.708435,318
855.826172,314
855.943848,319
856.061646,321
856.179321,313
856.296997,314
856.414795,305
856.53241,313
856.650085,317
856.767822,309
856.885559,314
857.003174,319
857.120911,321
857.238586,318
857.356201,316
857.473938,314
857.591614,314
857.709351,316
857.826965,328
857.944641,310
858.062317,314
858.179993,306
858.297668,325
858.415283,322
858.532959,320
858.650574,335
858.768188,312
858.885803,315
859.003479,321
859.121094,331
859.23877,320
859.356384,319
859.473999,308
859.591675,322
859.709229,312
859.826843,325
859.944458,323
860.062012,327
860.179626,310
860.297302,332
860.414856,329
860.532471,322
860.650024,321
860.767639,310
860.885193,306
861.002808,329
861.120361,315
861.237976,308
861.35553,315
861.473022,314
861.590698,332
861.708191,319
861.825745,321
861.943298,312
862.060852,317
862.178406,328
862.295959,298
862.413513,330
862.531006,317
862.64856,299
862.766113,325
862.883667,328
863.00116,325
863.118713,324
863.236206,319
863.353699,314
863.471252,315
863.588745,324
863.706177,318
863.82373,312
863.941162,319
864.058716,307
864.176208,327
864.29364,323
864.411194,325
864.528687,337
864.646118,301
864.763611,330
864.881042,323
864.998535,329
865.116028,325
865.233459,318
865.350891,322
865.468384,321
865.585754,328
865.703308,327
865.820679,320
865.938171,326
866.055542,306
866.173035,316
866.290466,316
866.407837,295
866.52533,320
866.6427,307
866.760071,317
866.877563,327
866.994934,317
867.112305,321
867.229736,323
867.347107,316
867.464539,301
867.58197,323
867.699341,320
867.81665,316
867.934082,329
868.051453,327
868.168823,311
868.286194,315
868.403564,319
868.520935,308
868.638306,308
868.755676,313
868.872986,313
868.990295,319
869.107727,322
869.225037,303
869.342346,311
869.459717,329
869.577026,318
869.694336,310
869.811707,327
869.929016,323
870.046326,311
870.163635,314
870.280945,317
870.398254,326
870.515564,308
870.632812,325
870.750183,321
870.867432,322
870.984741,323
871.102051,317
871.219299,324
871.336609,315
871.453918,321
871.571106,328
871.688416,310
871.805664,317
871.922852,316
872.040222,330
872.157471,324
872.274719,316
872.391968,323
872.509155,313
872.626465,313
872.743652,322
872.860962,322
872.978149,321
873.095337,323
873.212646,317
873.329834,320
873.44696,320
873.564209,322
873.681396,312
873.798645,320
873.915894,323
874.03302,314
874.150208,328
874.267456,310
874.384583,320
874.501831,300
874.618958,326
874.736145,324
874.853333,323
874.970459,333
875.087646,305
875.204834,325
875.32196,316
875.439148,323
875.556274,316
875.673401,321
875.790527,322
875.907715,310
876.024841,328
876.141968,311
876.259094,319
876.376282,314
876.493347,311
876.610474,315
876.7276,322
876.844727,323
876.961853,312
877.078918,312
877.195984,314
877.313171,318
877.430237,322
877.547302,320
877.664368,323
877.781433,315
877.898499,312
878.015625,308
878.13269,321
878.249695,314
878.366821,319
878.483887,316
878.600952,324
878.717957,308
878.834961,316
878.952087,325
879.069092,326
879.186157,315
879.303162,317
879.420227,324
879.537231,322
879.654236,310
879.77124,326
879.888306,322
880.005249,341
880.122314,311
880.239319,316
880.356323,320
880.473328,317
880.590271,321
880.707275,325
880.824341,315
880.941284,308
881.058228,331
881.175232,323
881.292236,314
881.40918,312
881.526123,310
881.643066,334
881.760071,306
881.877014,328
881.993958,309
882.11084,327
882.227783,310
882.344727,327
882.46167,321
882.578613,331
882.695618,317
882.812439,326
882.929382,308
883.046326,320
883.163208,317
883.280151,325
883.397034,321
883.513916,319
883.630798,316
883.747742,317
883.864563,309
883.981506,327
884.098389,323
884.21521,306
884.332153,314
884.448975,324
884.565796,309
884.682678,314
884.7995,321
884.916443,322
885.033264,329
885.150085,326
885.266968,307
885.383789,325
885.500671,313
885.617493,335
885.734314,323
885.851196,328
885.967896,323
886.084717,308
886.201599,319
886.318359,329
886.435181,321
886.552002,324
886.668762,316
886.785645,332
886.902344,322
887.019165,323
887.135925,315
887.252747,337
887.369446,311
887.486267,326
887.603027,317
887.719788,328
887.836548,308
887.953247,335
888.070068,320
888.186829,324
888.303528,325
888.420288,331
888.536987,321
888.653687,321
888.770447,317
888.887146,332
889.003967,317
889.120667,325
889.237305,308
889.354065,319
889.470703,312
889.587463,318
889.704163,319
889.820862,308
889.937561,310
890.054199,324
890.170837,306
890.287598,319
890.404236,326
890.520874,316
890.637634,308
890.754211,313
890.87085,322
890.987549,325
891.104187,318
891.220886,326
891.337463,312
891.454102,319
891.57074,320
891.687378,323
891.804077,314
891.920654,318
892.037231,313
892.15387,312
892.270447,321
892.387085,328
892.503723,308
892.6203,321
892.736877,306
892.853516,320
892.970032,330
893.08667,323
893.203186,323
893.319763,327
893.43634,316
893.552917,329
893.669556,321
893.786011,319
893.902588,317
894.019165,321
894.135681,329
894.252197,328
894.368835,325
894.485291,316
894.601868,311
894.718384,324
894.8349,319
894.951355,316
895.067932,321
895.184448,331
895.300964,320
895.417419,310
895.533936,317
895.650452,323
895.766907,324
895.883423,330
895.999878,314
896.116333,316
896.232849,323
896.349304,318
896.465759,306
896.582214,330
896.698669,319
896.815125,328
896.931641,315
897.048035,321
897.164551,305
897.280884,317
897.397339,300
897.513794,318
897.630249,315
897.746582,325
897.863098,311
897.979431,339
898.095886,314
898.212341,320
898.328674,319
898.445129,327
898.561462,316
898.677795,312
898.794312,316
898.910645,320
899.026978,312
899.143433,305
899.259766,307
899.37616,316
899.492493,315
899.608765,322
899.725159,317
899.841553,327
899.957947,308
900.07428,319
900.190552,308
900.306946,296
900.423157,321
900.53949,322
900.655884,320
900.772156,320
900.888489,323
901.004822,323
901.121033,336
901.237366,323
901.353699,320
901.46991,316
901.586304,313
901.702515,315
901.818787,310
901.93512,313
902.051331,309
902.167603,329
902.283875,319
902.400085,320
902.516418,330
902.632629,310
902.74884,330
902.865112,326
902.981384,317
903.097595,320
903.213867,327
903.330017,322
903.446289,318
903.5625,320
903.67865,323
903.794922,317
903.911072,321
904.027344,327
904.143494,322
904.259705,314
904.375916,320
904.492065,322
904.608215,314
904.724426,318
904.840576,318
904.956726,325
905.072876,321
905.189087,309
905.305176,309
905.421387,320
905.537537,322
905.653687,309
905.769775,321
905.885925,315
906.002014,305
906.118164,318
906.234314,326
906.350403,321
906.466492,316
906.582642,314
906.69873,315
906.814758,312
906.930908,315
907.046936,316
907.163086,323
907.279175,316
907.395264,303
907.511353,317
907.62738,311
907.743408,313
907.859497,318
907.975525,323
908.091553,324
908.207703,301
908.32373,317
908.439758,301
908.555786,314
908.671814,313
908.787842,311
908.90387,324
909.019775,319
909.135864,318
909.251892,310
909.367859,307
909.483826,314
909.599854,318
909.715881,325
909.831848,322
909.947815,319
910.063782,325
910.179749,313
910.295776,324
910.411743,319
910.527649,308
910.643616,321
910.759583,309
910.875488,324
910.991455,336
911.107361,314
911.223267,330
911.339294,325
911.4552,316
911.571106,317
911.687073,307
911.802979,325
911.918823,318
912.034729,309
912.150635,319
912.266602,320
912.382446,321
912.498352,327
912.614197,318
912.730103,323
912.846008,322
