792.44574,310
792.56488,336
792.68396,394
792.80304,374
792.92218,337
793.041199,296
793.160339,303
793.279419,331
793.398499,327
793.517578,306
793.636658,313
793.755737,328
793.874817,348
793.993896,332
794.112976,329
794.232056,311
794.351074,322
794.470215,321
794.589233,311
794.708313,311
794.827393,332
794.946411,325
795.065552,322
795.18457,333
795.303589,319
795.422668,323
795.541687,326
795.660767,314
795.779846,337
795.898865,317
796.017883,327
796.136963,310
796.255981,319
796.375061,326
796.49408,314
796.613037,319
796.732117,309
796.851135,314
796.970154,328
797.089233,310
797.208191,318
797.327271,331
797.446228,302
797.565186,321
797.684265,322
797.803223,326
797.922241,319
798.04126,322
798.160278,309
798.279297,317
798.398315,316
798.517273,326
798.636292,305
798.75531,327
798.874268,310
798.993286,323
799.112244,339
799.231323,308
799.350281,309
799.469238,334
799.588257,318
799.707153,326
799.826111,319
799.945129,326
800.064087,313
800.183044,330
800.302063,328
800.421021,310
800.539978,326
800.658936,318
800.777893,307
800.896912,314
801.015747,314
801.134705,318
801.253723,313
801.37262,337
801.491638,313
801.610535,321
801.729492,306
801.84845,317
801.967407,320
802.086243,306
802.205261,321
802.324158,315
802.443115,320
802.562073,316
802.680969,316
802.799927,318
802.918762,324
803.037659,324
803.156677,303
803.275574,313
803.39447,321
803.513428,326
803.632263,328
803.751221,328
803.870117,327
803.989014,304
804.107971,322
804.226746,314
804.345642,320
804.4646,313
804.583496,322
804.702393,311
804.821228,315
804.940125,313
805.059021,338
805.177917,314
805.296814,331
805.415649,323
805.534546,313
805.653442,319
805.772278,325
805.891113,312
806.01001,309
806.128906,307
806.247742,320
806.366577,323
806.485413,321
806.604309,335
806.723145,327
806.84198,321
806.960876,309
807.079712,317
807.198486,316
807.317383,325
807.436218,330
807.554993,328
807.673889,327
807.792725,326
807.91156,327
808.030396,321
808.14917,312
808.268005,315
808.386841,317
808.505676,312
808.624451,327
808.743286,328
808.862122,308
808.980896,319
809.099731,321
809.218506,327
809.337341,320
809.456116,318
809.57489,318
809.693726,318
809.8125,332
809.931274,318
810.050049,327
810.168884,326
810.287659,309
810.406372,321
810.525269,325
810.643982,314
810.762756,320
810.881531,306
811.000305,321
811.11908,316
811.237854,323
811.356567,314
811.475403,317
811.594116,318
811.71283,308
811.831604,315
811.950378,323
812.069153,322
812.187927,315
812.30658,315
812.425415,317
812.544128,318
812.662781,317
812.781616,323
812.900269,316
813.019043,330
813.137756,318
813.256531,319
813.375244,316
813.493896,321
813.612671,314
813.731384,317
813.850037,313
813.96875,314
814.087524,316
814.206238,314
814.324951,320
814.443604,326
814.562256,309
814.68103,315
814.799683,315
814.918335,315
815.037109,315
815.155762,319
815.274475,305
815.393188,322
815.511841,316
815.630554,316
815.749146,318
815.867859,315
815.986572,322
816.105164,316
816.223877,323
816.342529,311
816.461182,302
816.579895,325
816.698486,309
816.817139,318
816.935791,318
817.054504,317
817.173096,307
817.291748,320
817.4104,332
817.529053,312
817.647644,322
817.766235,319
817.884949,309
818.00354,318
818.122192,308
818.240845,307
818.359436,303
818.478088,309
818.59668,322
818.715271,333
818.833923,310
818.952515,320
819.071106,318
819.189758,319
819.30835,329
819.426941,312
819.545532,320
819.664124,321
819.782715,314
819.901306,310
820.019897,333
820.138489,320
820.25708,314
820.375671,321
820.494202,326
820.612732,305
820.731384,312
820.849915,324
820.968506,320
821.087097,319
821.205627,306
821.324158,329
821.442749,319
821.561279,324
821.679871,321
821.798401,306
821.916931,313
822.035461,309
822.154053,316
822.272583,314
822.391174,319
822.509583,302
822.628174,316
822.746704,303
822.865234,311
822.983765,314
823.102295,329
823.220825,322
823.339294,317
823.457825,305
823.576355,322
823.694824,309
823.813354,321
823.931885,317
824.050354,330
824.168884,313
824.287354,312
824.405823,317
824.524353,313
824.642822,320
824.761353,313
824.879822,319
824.998291,314
825.116699,330
825.235291,322
825.353699,306
825.472168,330
825.590637,313
825.709106,314
825.827576,317
825.946045,317
826.064453,313
826.182983,316
826.301392,293
826.4198,307
826.53833,316
826.656738,321
826.775208,316
826.893677,322
827.012024,304
827.130493,316
827.248962,319
827.36731,309
827.485779,321
827.604248,334
827.722595,313
827.841064,313
827.959412,313
828.077942,317
828.196289,314
828.314636,296
828.433105,314
828.551514,306
828.669861,308
828.78833,314
828.906677,308
829.025085,320
829.143433,312
829.261841,316
829.38031,328
829.498657,320
829.617004,322
829.735413,315
829.85376,314
829.972107,326
830.090515,312
830.208862,304
830.327209,314
830.445557,313
830.563904,318
830.682312,312
830.800659,306
830.919006,309
831.037354,327
831.155701,311
831.274048,305
831.392395,324
831.51062,315
831.629028,311
831.747314,320
831.865662,310
831.984009,322
832.102356,310
832.220642,307
832.338928,328
832.457275,321
832.575623,307
832.693909,310
832.812134,313
832.930481,324
833.048828,315
833.167114,316
833.2854,318
833.403687,324
833.521973,308
833.640259,314
833.758545,308
833.876831,320
833.995056,304
834.113281,313
834.231628,302
834.349915,320
834.468201,302
834.586426,317
834.704651,319
834.822998,300
834.941162,319
835.059448,318
835.177673,318
835.295959,327
835.414246,320
835.53241,322
835.650635,309
835.768921,327
835.887146,319
836.005371,318
836.123596,319
836.241821,311
836.360046,321
836.478271,323
836.596497,305
836.714722,317
836.832886,300
836.95105,304
837.069336,306
837.1875,318
837.305725,295
837.423889,328
837.542053,313
837.660339,311
837.778503,307
837.896667,305
838.014832,323
838.132996,322
838.25116,310
838.369385,316
838.487488,312
838.605713,309
838.723877,308
838.84198,326
838.960205,306
839.078308,318
839.196472,311
839.314636,311
839.4328,309
839.550964,308
839.669067,325
839.787231,316
839.905396,320
840.023499,332
840.141602,316
840.259766,318
840.377869,307
840.495972,314
840.614136,307
840.732239,320
840.850342,308
840.968445,320
841.086548,308
841.204651,323
841.322754,308
841.440918,309
841.55896,315
841.677002,323
841.795166,314
841.913208,313
842.031311,293
842.149353,316
842.267456,318
842.385498,319
842.503601,315
842.621643,320
842.739746,307
842.857788,305
842.97583,329
843.093933,317
843.211975,318
843.330017,315
843.44812,308
843.566101,318
843.684204,317
843.802246,313
843.920227,319
844.038269,317
844.156311,312
844.274292,324
844.392395,315
844.510376,322
844.628357,327
844.74646,325
844.864441,310
844.982422,316
845.100403,312
845.218384,334
845.336426,309
845.454468,311
845.572449,314
845.69043,323
845.808411,323
845.926453,321
846.044373,318
846.162354,318
846.280396,306
846.398315,318
846.516296,326
846.634216,309
846.752197,318
846.870178,299
846.988098,313
847.106079,333
847.22406,314
847.34198,324
847.4599,319
847.577881,325
847.695801,313
847.813782,312
847.931641,297
848.049561,297
848.167603,322
848.285461,317
848.403381,326
848.521362,315
848.639221,318
848.75708,319
848.875,316
848.99292,306
849.110901,311
849.22876,323
849.34668,308
849.464539,321
849.582458,318
849.700317,332
849.818176,308
849.936096,322
850.053955,321
850.171875,311
850.289673,306
850.407593,299
850.525452,328
850.643311,312
850.761169,304
850.878967,305
850.996887,289
851.114746,328
851.232544,324
851.350403,312
851.468262,325
851.58606,317
851.703979,314
851.821777,309
851.939636,317
852.057434,308
852.175232,326
852.293091,317
852.410889,313
852.528687,312
852.646545,310
852.764343,309
852.88208,317
852.999939,313
853.117676,316
853.235535,300
853.353271,312
853.471069,309
853.588928,317
853.706604,315
853.824402,305
853.9422,330
854.059998,318
854.177734,317
854.295532,324
854.413269,318
854.531006,299
854.648804,323
854.766541,299
854.884277,320
855.002014,314
855.119751,319
855.237549,310
855.355225,318
855.473022,301
855.590698,321
855.708435,300
855.826172,304
855.943848,326
856.061646,325
856.179321,311
856.296997,302
856.414795,315
856.53241,323
856.650085,318
856.767822,312
856.885559,307
857.003174,309
857.120911,313
857.238586,316
857.356201,311
857.473938,316
857.591614,312
857.709351,332
857.826965,297
857.944641,311
858.062317,315
858.179993,327
858.297668,301
858.415283,329
858.532959,300
858.650574,311
858.768188,306
858.885803,321
859.003479,324
859.121094,323
859.23877,315
859.356384,309
859.473999,316
859.591675,320
859.709229,313
859.826843,319
859.944458,324
860.062012,307
860.179626,314
860.297302,322
860.414856,323
860.532471,316
860.650024,305
860.767639,315
860.885193,319
861.002808,328
861.120361,320
861.237976,309
861.35553,310
861.473022,326
861.590698,308
861.708191,320
861.825745,307
861.943298,310
862.060852,318
862.178406,331
862.295959,317
862.413513,317
862.531006,321
862.64856,319
862.766113,301
862.883667,314
863.00116,319
863.118713,307
863.236206,315
863.353699,318
863.471252,324
863.588745,313
863.706177,308
863.82373,327
863.941162,314
864.058716,312
864.176208,313
864.29364,313
864.411194,327
864.528687,318
864.646118,321
864.763611,321
864.881042,308
864.998535,311
865.116028,322
865.233459,317
865.350891,306
865.468384,308
865.585754,303
865.703308,315
865.820679,321
865.938171,320
866.055542,318
866.173035,329
866.290466,310
866.407837,323
866.52533,336
866.6427,319
866.760071,317
866.877563,312
866.994934,318
867.112305,326
867.229736,309
867.347107,311
867.464539,318
867.58197,309
867.699341,313
867.81665,320
867.934082,320
868.051453,320
868.168823,324
868.286194,313
868.403564,312
868.520935,313
868.638306,315
868.755676,319
868.872986,312
868.990295,313
869.107727,324
869.225037,317
869.342346,303
869.459717,322
869.577026,313
869.694336,324
869.811707,302
869.929016,307
870.046326,300
870.163635,304
870.280945,314
870.398254,308
870.515564,317
870.632812,318
870.750183,315
870.867432,309
870.984741,329
871.102051,330
871.219299,310
871.336609,320
871.453918,319
871.571106,313
871.688416,319
871.805664,314
871.922852,311
872.040222,319
872.157471,322
872.274719,328
872.391968,307
872.509155,318
872.626465,311
872.743652,312
872.860962,324
872.978149,303
873.095337,312
873.212646,301
873.329834,311
873.44696,315
873.564209,314
873.681396,314
873.798645,317
873.915894,311
874.03302,313
874.150208,306
874.267456,324
874.384583,310
874.501831,316
874.618958,321
874.736145,330
874.853333,315
874.970459,320
875.087646,309
875.204834,315
875.32196,312
875.439148,308
875.556274,319
875.673401,305
875.790527,314
875.907715,313
876.024841,332
876.141968,317
876.259094,308
876.376282,314
876.493347,313
876.610474,334
876.7276,325
876.844727,312
876.961853,322
877.078918,315
877.195984,326
877.313171,329
877.430237,311
877.547302,314
877.664368,324
877.781433,300
877.898499,315
878.015625,309
878.13269,312
878.249695,299
878.366821,307
878.483887,329
878.600952,318
878.717957,317
878.834961,306
878.952087,310
879.069092,322
879.186157,309
879.303162,326
879.420227,315
879.537231,304
879.654236,324
879.77124,309
879.888306,318
880.005249,309
880.122314,319
880.239319,311
880.356323,312
880.473328,334
880.590271,314
880.707275,321
880.824341,317
880.941284,317
881.058228,311
881.175232,325
881.292236,320
881.40918,319
881.526123,324
881.643066,329
881.760071,319
881.877014,309
881.993958,316
882.11084,316
882.227783,322
882.344727,318
882.46167,324
882.578613,326
882.695618,314
882.812439,325
882.929382,320
883.046326,307
883.163208,308
883.280151,323
883.397034,317
883.513916,298
883.630798,335
883.747742,314
883.864563,307
883.981506,327
884.098389,305
884.21521,310
884.332153,324
884.448975,316
884.565796,318
884.682678,324
884.7995,319
884.916443,309
885.033264,318
885.150085,316
885.266968,303
885.383789,318
885.500671,302
885.617493,307
885.734314,307
885.851196,312
885.967896,307
886.084717,312
886.201599,308
886.318359,313
886.435181,324
886.552002,321
886.668762,305
886.785645,326
886.902344,314
887.019165,324
887.135925,304
887.252747,326
887.369446,308
887.486267,323
887.603027,309
887.719788,311
887.836548,319
887.953247,319
888.070068,318
888.186829,311
888.303528,318
888.420288,303
888.536987,297
888.653687,324
888.770447,324
888.887146,312
889.003967,311
889.120667,326
889.237305,334
889.354065,314
889.470703,310
889.587463,308
889.704163,315
889.820862,319
889.937561,316
890.054199,308
890.170837,319
890.287598,322
890.404236,321
890.520874,316
890.637634,310
890.754211,313
890.87085,312
890.987549,313
891.104187,320
891.220886,308
891.337463,317
891.454102,320
891.57074,308
891.687378,312
891.804077,313
891.920654,319
892.037231,314
892.15387,323
892.270447,314
892.387085,310
892.503723,312
892.6203,313
892.736877,310
892.853516,312
892.970032,312
893.08667,305
893.203186,328
893.319763,318
893.43634,308
893.552917,320
893.669556,307
893.786011,313
893.902588,309
894.019165,315
894.135681,303
894.252197,312
894.368835,315
894.485291,308
894.601868,311
894.718384,322
894.8349,310
894.951355,315
895.067932,316
895.184448,314
895.300964,318
895.417419,323
895.533936,304
895.650452,329
895.766907,311
895.883423,313
895.999878,328
896.116333,318
896.232849,319
896.349304,314
896.465759,301
896.582214,335
896.698669,312
896.815125,330
896.931641,315
897.048035,324
897.164551,318
897.280884,321
897.397339,323
897.513794,330
897.630249,302
897.746582,320
897.863098,309
897.979431,312
898.095886,303
898.212341,320
898.328674,325
898.445129,315
898.561462,304
898.677795,316
898.794312,323
898.910645,313
899.026978,321
899.143433,316
899.259766,311
899.37616,322
899.492493,301
899.608765,310
899.725159,316
899.841553,309
899.957947,321
900.07428,324
900.190552,318
900.306946,319
900.423157,316
900.53949,316
900.655884,313
900.772156,320
900.888489,312
901.004822,323
901.121033,323
901.237366,319
901.353699,298
901.46991,314
901.586304,327
901.702515,312
901.818787,321
901.93512,316
902.051331,303
902.167603,326
902.283875,309
902.400085,315
902.516418,310
902.632629,318
902.74884,306
902.865112,306
902.981384,331
903.097595,305
903.213867,316
903.330017,326
903.446289,311
903.5625,306
903.67865,313
903.794922,322
903.911072,311
904.027344,310
904.143494,322
904.259705,319
904.375916,319
904.492065,315
904.608215,320
904.724426,322
904.840576,306
904.956726,319
905.072876,304
905.189087,316
905.305176,318
905.421387,305
905.537537,306
905.653687,313
905.769775,301
905.885925,309
906.002014,318
906.118164,323
906.234314,321
906.350403,300
906.466492,315
906.582642,315
906.69873,319
906.814758,313
906.930908,311
907.046936,319
907.163086,311
907.279175,316
907.395264,318
907.511353,315
907.62738,310
907.743408,319
907.859497,310
907.975525,325
908.091553,315
908.207703,321
908.32373,311
908.439758,323
908.555786,305
908.671814,314
908.787842,316
908.90387,316
909.019775,309
909.135864,322
909.251892,316
909.367859,315
909.483826,323
909.599854,320
909.715881,324
909.831848,327
909.947815,311
910.063782,310
910.179749,318
910.295776,325
910.411743,308
910.527649,328
910.643616,311
910.759583,308
910.875488,314
910.991455,317
911.107361,325
911.223267,309
911.339294,319
911.4552,309
911.571106,309
911.687073,325
911.802979,311
911.918823,319
912.034729,311
912.150635,316
912.266602,323
912.382446,308
912.498352,316
912.614197,323
912.730103,310
912.846008,323
792.44574,310
792.56488,320
792.68396,402
792.80304,361
792.92218,328
793.041199,299
793.160339,312
793.279419,312
793.398499,333
793.517578,300
793.636658,309
793.755737,337
793.874817,339
793.993896,325
794.112976,335
794.232056,327
794.351074,321
794.470215,320
794.589233,326
794.708313,317
794.827393,324
794.946411,317
795.065552,336
795.18457,323
795.303589,334
795.422668,314
795.541687,329
795.660767,332
795.779846,319
795.898865,317
796.017883,321
796.136963,321
796.255981,319
796.375061,325
796.49408,322
796.613037,307
796.732117,316
796.851135,307
796.970154,324
797.089233,321
797.208191,323
797.327271,323
797.446228,334
797.565186,321
797.684265,318
797.803223,324
797.922241,325
798.04126,330
798.160278,324
798.279297,316
798.398315,323
798.517273,325
798.636292,322
798.75531,328
798.874268,315
798.993286,314
799.112244,317
799.231323,326
799.350281,320
799.469238,321
799.588257,322
799.707153,322
799.826111,325
799.945129,314
800.064087,316
800.183044,317
800.302063,334
800.421021,322
800.539978,321
800.658936,315
800.777893,321
800.896912,322
801.015747,320
801.134705,324
801.253723,311
801.37262,315
801.491638,329
801.610535,309
801.729492,320
801.84845,315
801.967407,335
802.086243,312
802.205261,321
802.324158,323
802.443115,323
802.562073,331
802.680969,323
802.799927,316
802.918762,305
803.037659,318
803.156677,302
803.275574,314
803.39447,318
803.513428,321
803.632263,328
803.751221,320
803.870117,318
803.989014,313
804.107971,317
804.226746,323
804.345642,321
804.4646,322
804.583496,318
804.702393,313
804.821228,325
804.940125,311
805.059021,337
805.177917,325
805.296814,321
805.415649,319
805.534546,333
805.653442,317
805.772278,325
805.891113,309
806.01001,331
806.128906,323
806.247742,333
806.366577,317
806.485413,331
806.604309,322
806.723145,315
806.84198,307
806.960876,324
807.079712,322
807.198486,326
807.317383,311
807.436218,317
807.554993,326
807.673889,319
807.792725,323
807.91156,315
808.030396,319
808.14917,310
808.268005,320
808.386841,320
808.505676,317
808.624451,319
808.743286,325
808.862122,320
808.980896,328
809.099731,317
809.218506,326
809.337341,326
809.456116,308
809.57489,330
809.693726,326
809.8125,326
809.931274,329
810.050049,310
810.168884,319
810.287659,318
810.406372,312
810.525269,327
810.643982,313
810.762756,319
810.881531,312
811.000305,326
811.11908,322
811.237854,324
811.356567,322
811.475403,326
811.594116,310
811.71283,317
811.831604,315
811.950378,325
812.069153,320
812.187927,315
812.30658,331
812.425415,320
812.544128,312
812.662781,318
812.781616,316
812.900269,316
813.019043,328
813.137756,325
813.256531,319
813.375244,321
813.493896,326
813.612671,322
813.731384,321
813.850037,328
813.96875,320
814.087524,319
814.206238,314
814.324951,329
814.443604,303
814.562256,334
814.68103,323
814.799683,305
814.918335,306
815.037109,318
815.155762,313
815.274475,343
815.393188,303
815.511841,335
815.630554,324
815.749146,327
815.867859,326
815.986572,315
816.105164,314
816.223877,318
816.342529,325
816.461182,337
816.579895,315
816.698486,317
816.817139,329
816.935791,323
817.054504,318
817.173096,328
817.291748,310
817.4104,321
817.529053,318
817.647644,320
817.766235,321
817.884949,312
818.00354,317
818.122192,312
818.240845,314
818.359436,329
818.478088,308
818.59668,322
818.715271,299
818.833923,334
818.952515,314
819.071106,312
819.189758,320
819.30835,322
819.426941,310
819.545532,312
819.664124,323
819.782715,316
819.901306,313
820.019897,316
820.138489,321
820.25708,325
820.375671,314
820.494202,329
820.612732,322
820.731384,323
820.849915,303
820.968506,323
821.087097,310
821.205627,309
821.324158,311
821.442749,324
821.561279,316
821.679871,319
821.798401,308
821.916931,313
822.035461,324
822.154053,308
822.272583,307
822.391174,313
822.509583,302
822.628174,315
822.746704,311
822.865234,329
822.983765,319
823.102295,327
823.220825,316
823.339294,325
823.457825,337
823.576355,315
823.694824,317
823.813354,309
823.931885,315
824.050354,326
824.168884,328
824.287354,328
824.405823,319
824.524353,329
824.642822,303
824.761353,313
824.879822,306
824.998291,312
825.116699,317
825.235291,323
825.353699,310
825.472168,320
825.590637,321
825.709106,310
825.827576,316
825.946045,326
826.064453,315
826.182983,325
826.301392,304
826.4198,328
826.53833,312
826.656738,314
826.775208,312
826.893677,317
827.012024,319
827.130493,319
827.248962,313
827.36731,328
827.485779,303
827.604248,332
827.722595,320
827.841064,316
827.959412,320
828.077942,327
828.196289,313
828.314636,325
828.433105,317
828.551514,322
828.669861,315
828.78833,318
828.906677,307
829.025085,318
829.143433,314
829.261841,322
829.38031,315
829.498657,309
829.617004,318
829.735413,323
829.85376,312
829.972107,324
830.090515,321
830.208862,316
830.327209,331
830.445557,312
830.563904,332
830.682312,310
830.800659,303
830.919006,319
831.037354,290
831.155701,320
831.274048,306
831.392395,316
831.51062,316
831.629028,318
831.747314,319
831.865662,335
831.984009,309
832.102356,318
832.220642,331
832.338928,318
832.457275,310
832.575623,319
832.693909,315
832.812134,315
832.930481,311
833.048828,306
833.167114,315
833.2854,319
833.403687,324
833.521973,321
833.640259,310
833.758545,326
833.876831,323
833.995056,317
834.113281,314
834.231628,327
834.349915,317
834.468201,306
834.586426,328
834.704651,319
834.822998,316
834.941162,307
835.059448,301
835.177673,319
835.295959,324
835.414246,330
835.53241,323
835.650635,319
835.768921,313
835.887146,322
836.005371,315
836.123596,328
836.241821,320
836.360046,319
836.478271,315
836.596497,322
836.714722,294
836.832886,316
836.95105,304
837.069336,320
837.1875,309
837.305725,319
837.423889,309
837.542053,312
837.660339,316
837.778503,318
837.896667,309
838.014832,310
838.132996,318
838.25116,315
838.369385,324
838.487488,316
838.605713,314
838.723877,318
838.84198,315
838.960205,321
839.078308,318
839.196472,323
839.314636,309
839.4328,319
839.550964,311
839.669067,299
839.787231,314
839.905396,322
840.023499,314
840.141602,319
840.259766,313
840.377869,310
840.495972,306
840.614136,310
840.732239,319
840.850342,307
840.968445,312
841.086548,310
841.204651,324
841.322754,325
841.440918,313
841.55896,316
841.677002,313
841.795166,317
841.913208,324
842.031311,316
842.149353,318
842.267456,308
842.385498,301
842.503601,321
842.621643,312
842.739746,316
842.857788,320
842.97583,315
843.093933,317
843.211975,331
843.330017,317
843.44812,301
843.566101,320
843.684204,313
843.802246,314
843.920227,318
844.038269,312
844.156311,321
844.274292,317
844.392395,310
844.510376,307
844.628357,316
844.74646,297
844.864441,318
844.982422,307
845.100403,310
845.218384,329
845.336426,314
845.454468,329
845.572449,321
845.69043,311
845.808411,314
845.926453,322
846.044373,320
846.162354,304
846.280396,320
846.398315,310
846.516296,318
846.634216,311
846.752197,318
846.870178,312
846.988098,319
847.106079,329
847.22406,312
847.34198,305
847.4599,317
847.577881,316
847.695801,313
847.813782,316
847.931641,305
848.049561,316
848.167603,328
848.285461,313
848.403381,325
848.521362,313
848.639221,318
848.75708,313
848.875,296
848.99292,310
849.110901,309
849.22876,325
849.34668,319
849.464539,312
849.582458,309
849.700317,328
849.818176,322
849.936096,310
850.053955,315
850.171875,310
850.289673,300
850.407593,306
850.525452,313
850.643311,322
850.761169,313
850.878967,303
850.996887,323
851.114746,314
851.232544,327
851.350403,295
851.468262,316
851.58606,316
851.703979,314
851.821777,318
851.939636,325
852.057434,300
852.175232,323
852.293091,314
852.410889,322
852.528687,301
852.646545,324
852.764343,310
852.88208,320
852.999939,321
853.117676,319
853.235535,318
853.353271,316
853.471069,319
853.588928,326
853.706604,304
853.824402,315
853.9422,307
854.059998,312
854.177734,313
854.295532,316
854.413269,320
854.531006,310
854.648804,322
854.766541,301
854.884277,310
855.002014,313
855.119751,318
855.237549,322
855.355225,315
855.473022,321
855.590698,307
855.708435,327
855.826172,313
855.943848,315
856.061646,312
856.179321,310
856.296997,308
856.414795,313
856.53241,310
856.650085,322
856.767822,313
856.885559,319
857.003174,309
857.120911,329
857.238586,318
857.356201,316
857.473938,321
857.591614,320
857.709351,322
857.826965,320
857.944641,313
858.062317,316
858.179993,308
858.297668,315
858.415283,317
858.532959,316
858.650574,303
858.768188,308
858.885803,295
859.003479,321
859.121094,310
859.23877,307
859.356384,317
859.473999,319
859.591675,315
859.709229,309
859.826843,313
859.944458,311
860.062012,315
860.179626,302
860.297302,315
860.414856,313
860.532471,315
860.650024,320
860.767639,309
860.885193,328
861.002808,300
861.120361,317
861.237976,322
861.35553,334
861.473022,305
861.590698,318
861.708191,324
861.825745,326
861.943298,319
862.060852,310
862.178406,294
862.295959,317
862.413513,314
862.531006,336
862.64856,317
862.766113,310
862.883667,317
863.00116,315
863.118713,321
863.236206,320
863.353699,317
863.471252,315
863.588745,303
863.706177,314
863.82373,315
863.941162,320
864.058716,300
864.176208,315
864.29364,317
864.411194,318
864.528687,310
864.646118,316
864.763611,318
864.881042,317
864.998535,310
865.116028,321
865.233459,315
865.350891,321
865.468384,309
865.585754,314
865.703308,306
865.820679,316
865.938171,313
866.055542,321
866.173035,304
866.290466,317
866.407837,321
866.52533,321
866.6427,306
866.760071,313
866.877563,309
866.994934,322
867.112305,314
867.229736,314
867.347107,311
867.464539,328
867.58197,315
867.699341,326
867.81665,316
867.934082,317
868.051453,315
868.168823,310
868.286194,319
868.403564,326
868.520935,300
868.638306,337
868.755676,317
868.872986,318
868.990295,313
869.107727,317
869.225037,310
869.342346,314
869.459717,315
869.577026,316
869.694336,325
869.811707,312
869.929016,301
870.046326,311
870.163635,314
870.280945,324
870.398254,301
870.515564,323
870.632812,320
870.750183,322
870.867432,297
870.984741,313
871.102051,307
871.219299,327
871.336609,316
871.453918,333
871.571106,328
871.688416,322
871.805664,309
871.922852,308
872.040222,309
872.157471,317
872.274719,311
872.391968,326
872.509155,316
872.626465,323
872.743652,313
872.860962,304
872.978149,311
873.095337,334
873.212646,325
873.329834,315
873.44696,314
873.564209,311
873.681396,319
873.798645,306
873.915894,301
874.03302,329
874.150208,318
874.267456,325
874.384583,302
874.501831,314
874.618958,314
874.736145,306
874.853333,315
874.970459,328
875.087646,309
875.204834,312
875.32196,322
875.439148,327
875.556274,306
875.673401,321
875.790527,296
875.907715,324
876.024841,313
876.141968,319
876.259094,315
876.376282,313
876.493347,328
876.610474,334
876.7276,306
876.844727,313
876.961853,302
877.078918,317
877.195984,308
877.313171,317
877.430237,313
877.547302,313
877.664368,324
877.781433,321
877.898499,325
878.015625,313
878.13269,301
878.249695,326
878.366821,314
878.483887,325
878.600952,314
878.717957,317
878.834961,312
878.952087,322
879.069092,312
879.186157,336
879.303162,313
879.420227,320
879.537231,313
879.654236,307
879.77124,310
879.888306,304
880.005249,315
880.122314,313
880.239319,306
880.356323,315
880.473328,319
880.590271,316
880.707275,301
880.824341,315
880.941284,325
881.058228,315
881.175232,315
881.292236,318
881.40918,317
881.526123,325
881.643066,318
881.760071,325
881.877014,328
881.993958,314
882.11084,323
882.227783,311
882.344727,331
882.46167,324
882.578613,301
882.695618,322
882.812439,312
882.929382,326
883.046326,309
883.163208,315
883.280151,318
883.397034,318
883.513916,335
883.630798,325
883.747742,319
883.864563,317
883.981506,318
884.098389,314
884.21521,325
884.332153,305
884.448975,314
884.565796,316
884.682678,318
884.7995,329
884.916443,314
885.033264,333
885.150085,301
885.266968,311
885.383789,323
885.500671,320
885.617493,327
885.734314,323
885.851196,312
885.967896,305
886.084717,324
886.201599,322
886.318359,308
886.435181,316
886.552002,304
886.668762,320
886.785645,316
886.902344,321
887.019165,330
887.135925,319
887.252747,321
887.369446,323
887.486267,313
887.603027,318
887.719788,315
887.836548,316
887.953247,307
888.070068,306
888.186829,320
888.303528,319
888.420288,320
888.536987,321
888.653687,322
888.770447,326
888.887146,318
889.003967,313
889.120667,306
889.237305,327
889.354065,301
889.470703,322
889.587463,312
889.704163,313
889.820862,308
889.937561,329
890.054199,303
890.170837,324
890.287598,314
890.404236,315
890.520874,311
890.637634,318
890.754211,313
890.87085,327
890.987549,299
891.104187,321
891.220886,311
891.337463,306
891.454102,320
891.57074,320
891.687378,315
891.804077,327
891.920654,321
892.037231,316
892.15387,312
892.270447,316
892.387085,307
892.503723,327
892.6203,312
892.736877,314
892.853516,323
892.970032,319
893.08667,313
893.203186,321
893.319763,314
893.43634,318
893.552917,311
893.669556,319
893.786011,319
893.902588,315
894.019165,321
894.135681,325
894.252197,319
894.368835,316
894.485291,320
894.601868,329
894.718384,316
894.8349,314
894.951355,308
895.067932,321
895.184448,308
895.300964,317
895.417419,322
895.533936,322
895.650452,318
895.766907,344
895.883423,318
895.999878,318
896.116333,318
896.232849,317
896.349304,315
896.465759,338
896.582214,304
896.698669,333
896.815125,321
896.931641,319
897.048035,306
897.164551,313
897.280884,313
897.397339,312
897.513794,318
897.630249,326
897.746582,303
897.863098,315
897.979431,314
898.095886,330
898.212341,315
898.328674,325
898.445129,316
898.561462,305
898.677795,304
898.794312,307
898.910645,324
899.026978,326
899.143433,307
899.259766,319
899.37616,308
899.492493,335
899.608765,321
899.725159,315
899.841553,321
899.957947,316
900.07428,310
900.190552,313
900.306946,324
900.423157,322
900.53949,312
900.655884,320
900.772156,317
900.888489,321
901.004822,309
901.121033,321
901.237366,315
901.353699,329
901.46991,299
901.586304,321
901.702515,306
901.818787,316
901.93512,315
902.051331,327
902.167603,310
902.283875,306
902.400085,319
902.516418,327
902.632629,312
902.74884,323
902.865112,314
902.981384,323
903.097595,317
903.213867,307
903.330017,324
903.446289,320
903.5625,327
903.67865,320
903.794922,317
903.911072,313
904.027344,304
904.143494,315
904.259705,305
904.375916,318
904.492065,323
904.608215,304
904.724426,296
904.840576,322
904.956726,310
905.072876,311
905.189087,320
905.305176,321
905.421387,321
905.537537,314
905.653687,313
905.769775,319
905.885925,312
906.002014,317
906.118164,304
906.234314,320
906.350403,318
906.466492,316
906.582642,326
906.69873,329
906.814758,328
906.930908,329
907.046936,306
907.163086,295
907.279175,307
907.395264,323
907.511353,317
907.62738,311
907.743408,319
907.859497,324
907.975525,316
908.091553,333
908.207703,318
908.32373,318
908.439758,320
908.555786,324
908.671814,319
908.787842,319
908.90387,311
909.019775,312
909.135864,319
909.251892,318
909.367859,313
909.483826,326
909.599854,308
909.715881,305
909.831848,326
909.947815,329
910.063782,311
910.179749,310
910.295776,317
910.411743,335
910.527649,320
910.643616,324
910.759583,306
910.875488,330
910.991455,313
911.107361,310
911.223267,313
911.339294,321
911.4552,317
911.571106,326
911.687073,303
911.802979,319
911.918823,327
912.034729,318
912.150635,317
912.266602,301
912.382446,299
912.498352,313
912.614197,329
912.730103,322
912.846008,306
792.44574,302
792.56488,337
792.68396,390
792.80304,348
792.92218,318
793.041199,305
793.160339,311
793.279419,322
793.398499,316
793.517578,310
793.636658,309
793.755737,328
793.874817,346
793.993896,326
794.112976,309
794.232056,317
794.351074,306
794.470215,317
794.589233,322
794.708313,320
794.827393,319
794.946411,324
795.065552,320
795.18457,329
795.303589,329
795.422668,319
795.541687,325
795.660767,323
795.779846,320
795.898865,318
796.017883,330
796.136963,309
796.255981,333
796.375061,312
796.49408,329
796.613037,319
796.732117,322
796.851135,323
796.970154,320
797.089233,314
797.208191,309
797.327271,338
797.446228,326
797.565186,317
797.684265,320
797.803223,318
797.922241,311
798.04126,321
798.160278,318
798.279297,311
798.398315,313
798.517273,331
798.636292,331
798.75531,312
798.874268,314
798.993286,317
799.112244,323
799.231323,327
799.350281,322
799.469238,313
799.588257,322
799.707153,325
799.826111,320
799.945129,322
800.064087,330
800.183044,317
800.302063,314
800.421021,333
800.539978,317
800.658936,320
800.777893,326
800.896912,304
801.015747,333
801.134705,322
801.253723,322
801.37262,319
801.491638,318
801.610535,317
801.729492,309
801.84845,310
801.967407,339
802.086243,323
802.205261,320
802.324158,313
802.443115,334
802.562073,320
802.680969,310
802.799927,312
802.918762,326
803.037659,316
803.156677,325
803.275574,322
803.39447,319
803.513428,326
803.632263,313
803.751221,344
803.870117,319
803.989014,322
804.107971,318
804.226746,304
804.345642,323
804.4646,327
804.583496,315
804.702393,306
804.821228,317
804.940125,325
805.059021,328
805.177917,307
805.296814,329
805.415649,314
805.534546,321
805.653442,330
805.772278,323
805.891113,319
806.01001,314
806.128906,312
806.247742,324
806.366577,326
806.485413,312
806.604309,307
806.723145,313
806.84198,327
806.960876,316
807.079712,326
807.198486,308
807.317383,341
807.436218,319
807.554993,323
807.673889,322
807.792725,323
807.91156,319
808.030396,318
808.14917,317
808.268005,319
808.386841,298
808.505676,326
808.624451,321
808.743286,331
808.862122,317
808.980896,319
809.099731,316
809.218506,314
809.337341,321
809.456116,311
809.57489,316
809.693726,304
809.8125,324
809.931274,324
810.050049,312
810.168884,317
810.287659,317
810.406372,313
810.525269,337
810.643982,323
810.762756,305
810.881531,325
811.000305,314
811.11908,318
811.237854,312
811.356567,320
811.475403,321
811.594116,312
811.71283,319
811.831604,312
811.950378,312
812.069153,312
812.187927,314
812.30658,321
812.425415,324
812.544128,317
812.662781,321
812.781616,313
812.900269,309
813.019043,325
813.137756,314
813.256531,322
813.375244,325
813.493896,319
813.612671,317
813.731384,325
813.850037,321
813.96875,320
814.087524,320
814.206238,317
814.324951,314
814.443604,317
814.562256,317
814.68103,327
814.799683,316
814.918335,303
815.037109,314
815.155762,317
815.274475,315
815.393188,322
815.511841,321
815.630554,312
815.749146,309
815.867859,315
815.986572,321
816.105164,325
816.223877,318
816.342529,312
816.461182,324
816.579895,321
816.698486,326
816.817139,332
816.935791,322
817.054504,326
817.173096,322
817.291748,318
817.4104,311
817.529053,331
817.647644,310
817.766235,308
817.884949,299
818.00354,324
818.122192,310
818.240845,300
818.359436,337
818.478088,322
818.59668,331
818.715271,313
818.833923,313
818.952515,312
819.071106,312
819.189758,317
819.30835,318
819.426941,314
819.545532,323
819.664124,306
819.782715,317
819.901306,309
820.019897,309
820.138489,320
820.25708,313
820.375671,322
820.494202,322
820.612732,323
820.731384,299
820.849915,310
820.968506,311
821.087097,312
821.205627,308
821.324158,314
821.442749,316
821.561279,299
821.679871,310
821.798401,322
821.916931,315
822.035461,328
822.154053,324
822.272583,321
822.391174,306
822.509583,306
822.628174,298
822.746704,332
822.865234,323
822.983765,319
823.102295,323
823.220825,332
823.339294,303
823.457825,311
823.576355,313
823.694824,329
823.813354,309
823.931885,322
824.050354,304
824.168884,313
824.287354,308
824.405823,307
824.524353,305
824.642822,334
824.761353,310
824.879822,312
824.998291,306
825.116699,321
825.235291,320
825.353699,322
825.472168,314
825.590637,315
825.709106,334
825.827576,322
825.946045,319
826.064453,315
826.182983,318
826.301392,319
826.4198,297
826.53833,330
826.656738,310
826.775208,306
826.893677,314
827.012024,319
827.130493,317
827.248962,308
827.36731,313
827.485779,325
827.604248,322
827.722595,322
827.841064,317
827.959412,315
828.077942,317
828.196289,320
828.314636,315
828.433105,321
828.551514,305
828.669861,311
828.78833,314
828.906677,317
829.025085,313
829.143433,308
829.261841,325
829.38031,311
829.498657,317
829.617004,318
829.735413,333
829.85376,326
829.972107,321
830.090515,326
830.208862,314
830.327209,309
830.445557,316
830.563904,305
830.682312,320
830.800659,324
830.919006,311
831.037354,314
831.155701,312
831.274048,321
831.392395,320
831.51062,301
831.629028,314
831.747314,317
831.865662,323
831.984009,309
832.102356,313
832.220642,327
832.338928,310
832.457275,319
832.575623,305
832.693909,319
832.812134,307
832.930481,317
833.048828,311
833.167114,319
833.2854,316
833.403687,317
833.521973,316
833.640259,307
833.758545,319
833.876831,306
833.995056,316
834.113281,306
834.231628,320
834.349915,313
834.468201,324
834.586426,316
834.704651,325
834.822998,312
834.941162,322
835.059448,314
835.177673,309
835.295959,321
835.414246,306
835.53241,323
835.650635,306
835.768921,313
835.887146,311
836.005371,306
836.123596,325
836.241821,319
836.360046,312
836.478271,319
836.596497,317
836.714722,320
836.832886,318
836.95105,314
837.069336,317
837.1875,302
837.305725,311
837.423889,317
837.542053,322
837.660339,317
837.778503,333
837.896667,308
838.014832,319
838.132996,319
838.25116,305
838.369385,299
838.487488,318
838.605713,324
838.723877,319
838.84198,307
838.960205,308
839.078308,309
839.196472,312
839.314636,313
839.4328,317
839.550964,312
839.669067,314
839.787231,299
839.905396,326
840.023499,315
840.141602,314
840.259766,304
840.377869,320
840.495972,319
840.614136,332
840.732239,317
840.850342,320
840.968445,308
841.086548,320
841.204651,305
841.322754,313
841.440918,325
841.55896,311
841.677002,315
841.795166,306
841.913208,313
842.031311,333
842.149353,301
842.267456,317
842.385498,325
842.503601,315
842.621643,300
842.739746,328
842.857788,306
842.97583,310
843.093933,326
843.211975,316
843.330017,312
843.44812,300
843.566101,306
843.684204,297
843.802246,320
843.920227,316
844.038269,314
844.156311,316
844.274292,308
844.392395,312
844.510376,314
844.628357,314
844.74646,307
844.864441,315
844.982422,309
845.100403,300
845.218384,325
845.336426,305
845.454468,321
845.572449,320
845.69043,307
845.808411,308
845.926453,329
846.044373,316
846.162354,319
846.280396,310
846.398315,317
846.516296,314
846.634216,324
846.752197,319
846.870178,311
846.988098,317
847.106079,318
847.22406,326
847.34198,317
847.4599,315
847.577881,322
847.695801,300
847.813782,319
847.931641,304
848.049561,317
848.167603,322
848.285461,300
848.403381,314
848.521362,322
848.639221,312
848.75708,319
848.875,313
848.99292,308
849.110901,301
849.22876,314
849.34668,318
849.464539,316
849.582458,316
849.700317,307
849.818176,305
849.936096,305
850.053955,294
850.171875,311
850.289673,320
850.407593,314
850.525452,313
850.643311,307
850.761169,317
850.878967,322
850.996887,317
851.114746,315
851.232544,299
851.350403,312
851.468262,315
851.58606,311
851.703979,313
851.821777,309
851.939636,309
852.057434,309
852.175232,319
852.293091,316
852.410889,332
852.528687,333
852.646545,314
852.764343,323
852.88208,316
852.999939,319
853.117676,320
853.235535,317
853.353271,313
853.471069,325
853.588928,313
853.706604,322
853.824402,313
853.9422,313
854.059998,317
854.177734,309
854.295532,315
854.413269,310
854.531006,296
854.648804,320
854.766541,312
854.884277,323
855.002014,311
855.119751,315
855.237549,313
855.355225,322
855.473022,318
855.590698,333
855.708435,324
855.826172,316
855.943848,312
856.061646,324
856.179321,311
856.296997,313
856.414795,314
856.53241,322
856.650085,312
856.767822,314
856.885559,323
857.003174,314
857.120911,325
857.238586,325
857.356201,309
857.473938,311
857.591614,321
857.709351,317
857.826965,314
857.944641,322
858.062317,306
858.179993,326
858.297668,303
858.415283,320
858.532959,302
858.650574,323
858.768188,316
858.885803,315
859.003479,314
859.121094,319
859.23877,315
859.356384,312
859.473999,304
859.591675,312
859.709229,309
859.826843,314
859.944458,314
860.062012,329
860.179626,305
860.297302,327
860.414856,313
860.532471,322
860.650024,304
860.767639,320
860.885193,336
861.002808,310
861.120361,315
861.237976,309
861.35553,313
861.473022,318
861.590698,317
861.708191,305
861.825745,319
861.943298,324
862.060852,308
862.178406,309
862.295959,316
862.413513,324
862.531006,317
862.64856,319
862.766113,308
862.883667,319
863.00116,309
863.118713,326
863.236206,309
863.353699,319
863.471252,327
863.588745,318
863.706177,321
863.82373,331
863.941162,316
864.058716,323
864.176208,309
864.29364,311
864.411194,312
864.528687,306
864.646118,314
864.763611,327
864.881042,312
864.998535,323
865.116028,301
865.233459,314
865.350891,301
865.468384,326
865.585754,310
865.703308,305
865.820679,301
865.938171,314
866.055542,314
866.173035,306
866.290466,319
866.407837,326
866.52533,316
866.6427,316
866.760071,314
866.877563,310
866.994934,319
867.112305,315
867.229736,317
867.347107,311
867.464539,309
867.58197,313
867.699341,317
867.81665,306
867.934082,304
868.051453,310
868.168823,318
868.286194,319
868.403564,314
868.520935,319
868.638306,320
868.755676,328
868.872986,315
868.990295,321
869.107727,321
869.225037,326
869.342346,291
869.459717,307
869.577026,313
869.694336,318
869.811707,307
869.929016,320
870.046326,310
870.163635,318
870.280945,305
870.398254,312
870.515564,311
870.632812,314
870.750183,317
870.867432,320
870.984741,320
871.102051,319
871.219299,325
871.336609,326
871.453918,297
871.571106,321
871.688416,319
871.805664,318
871.922852,308
872.040222,318
872.157471,308
872.274719,316
872.391968,312
872.509155,310
872.626465,312
872.743652,327
872.860962,312
872.978149,334
873.095337,322
873.212646,310
873.329834,303
873.44696,312
873.564209,306
873.681396,316
873.798645,318
873.915894,308
874.03302,319
874.150208,331
874.267456,311
874.384583,329
874.501831,318
874.618958,319
874.736145,323
874.853333,324
874.970459,322
875.087646,309
875.204834,330
875.32196,312
875.439148,311
875.556274,328
875.673401,311
875.790527,320
875.907715,311
876.024841,317
876.141968,312
876.259094,319
876.376282,315
876.493347,312
876.610474,303
876.7276,321
876.844727,308
876.961853,327
877.078918,310
877.195984,315
877.313171,321
877.430237,317
877.547302,326
877.664368,317
877.781433,313
877.898499,328
878.015625,316
878.13269,324
878.249695,304
878.366821,311
878.483887,325
878.600952,314
878.717957,313
878.834961,305
878.952087,315
879.069092,312
879.186157,318
879.303162,320
879.420227,328
879.537231,323
879.654236,314
879.77124,315
879.888306,329
880.005249,313
880.122314,302
880.239319,320
880.356323,298
880.473328,306
880.590271,326
880.707275,315
880.824341,319
880.941284,313
881.058228,311
881.175232,331
881.292236,327
881.40918,305
881.526123,303
881.643066,314
881.760071,314
881.877014,315
881.993958,304
882.11084,319
882.227783,321
882.344727,311
882.46167,308
882.578613,310
882.695618,310
882.812439,314
882.929382,314
883.046326,321
883.163208,316
883.280151,321
883.397034,304
883.513916,320
883.630798,317
883.747742,322
883.864563,321
883.981506,318
884.098389,304
884.21521,328
884.332153,318
884.448975,321
884.565796,331
884.682678,318
884.7995,306
884.916443,318
885.033264,325
885.150085,315
885.266968,303
885.383789,321
885.500671,305
885.617493,312
885.734314,311
885.851196,315
885.967896,316
886.084717,323
886.201599,327
886.318359,314
886.435181,317
886.552002,319
886.668762,297
886.785645,307
886.902344,333
887.019165,312
887.135925,320
887.252747,331
887.369446,327
887.486267,318
887.603027,335
887.719788,322
887.836548,317
887.953247,302
888.070068,323
888.186829,303
888.303528,325
888.420288,314
888.536987,316
888.653687,317
888.770447,301
888.887146,325
889.003967,303
889.120667,324
889.237305,316
889.354065,310
889.470703,310
889.587463,315
889.704163,310
889.820862,305
889.937561,312
890.054199,311
890.170837,318
890.287598,322
890.404236,307
890.520874,307
890.637634,300
890.754211,319
890.87085,292
890.987549,329
891.104187,311
891.220886,323
891.337463,311
891.454102,316
891.57074,314
891.687378,322
891.804077,310
891.920654,318
892.037231,312
892.15387,307
892.270447,321
892.387085,332
892.503723,309
892.6203,310
892.736877,327
892.853516,315
892.970032,309
893.08667,322
893.203186,310
893.319763,309
893.43634,320
893.552917,323
893.669556,308
893.786011,322
893.902588,297
894.019165,316
894.135681,316
894.252197,315
894.368835,313
894.485291,315
894.601868,324
894.718384,322
894.8349,319
894.951355,322
895.067932,310
895.184448,317
895.300964,313
895.417419,307
895.533936,319
895.650452,320
895.766907,303
895.883423,326
895.999878,331
896.116333,324
896.232849,319
896.349304,326
896.465759,313
896.582214,312
896.698669,301
896.815125,319
896.931641,317
897.048035,322
897.164551,307
897.280884,320
897.397339,334
897.513794,320
897.630249,322
897.746582,322
897.863098,312
897.979431,315
898.095886,313
898.212341,317
898.328674,317
898.445129,328
898.561462,313
898.677795,311
898.794312,322
898.910645,307
899.026978,331
899.143433,314
899.259766,308
899.37616,332
899.492493,313
899.608765,326
899.725159,301
899.841553,301
899.957947,314
900.07428,322
900.190552,304
900.306946,329
900.423157,320
900.53949,315
900.655884,307
900.772156,316
900.888489,329
901.004822,315
901.121033,319
901.237366,318
901.353699,302
901.46991,332
901.586304,317
901.702515,316
901.818787,315
901.93512,322
902.051331,311
902.167603,314
902.283875,313
902.400085,320
902.516418,326
902.632629,320
902.74884,322
902.865112,310
902.981384,317
903.097595,302
903.213867,317
903.330017,315
903.446289,318
903.5625,310
903.67865,322
903.794922,326
903.911072,303
904.027344,325
904.143494,313
904.259705,317
904.375916,318
904.492065,314
904.608215,317
904.724426,320
904.840576,317
904.956726,322
905.072876,315
905.189087,332
905.305176,316
905.421387,322
905.537537,327
905.653687,301
905.769775,309
905.885925,319
906.002014,305
906.118164,322
906.234314,311
906.350403,321
906.466492,312
906.582642,310
906.69873,308
906.814758,312
906.930908,326
907.046936,315
907.163086,305
907.279175,318
907.395264,306
907.511353,314
907.62738,311
907.743408,314
907.859497,319
907.975525,315
908.091553,311
908.207703,322
908.32373,315
908.439758,319
908.555786,315
908.671814,322
908.787842,318
908.90387,323
909.019775,311
909.135864,306
909.251892,315
909.367859,318
909.483826,313
909.599854,322
909.715881,317
909.831848,320
909.947815,323
910.063782,320
910.179749,319
910.295776,305
910.411743,310
910.527649,315
910.643616,326
910.759583,328
910.875488,309
910.991455,315
911.107361,310
911.223267,326
911.339294,299
911.4552,314
911.571106,315
911.687073,328
911.802979,317
911.918823,324
912.034729,319
912.150635,322
912.266602,312
912.382446,312
912.498352,316
912.614197,322
912.730103,327
912.846008,309
