792.44574,313
792.56488,374
792.68396,413
792.80304,381
792.92218,353
793.041199,332
793.160339,329
793.279419,347
793.398499,347
793.517578,325
793.636658,317
793.755737,343
793.874817,358
793.993896,346
794.112976,346
794.232056,328
794.351074,337
794.470215,334
794.589233,344
794.708313,331
794.827393,352
794.946411,336
795.065552,344
795.18457,330
795.303589,341
795.422668,330
795.541687,334
795.660767,321
795.779846,351
795.898865,339
796.017883,344
796.136963,334
796.255981,334
796.375061,315
796.49408,326
796.613037,314
796.732117,336
796.851135,323
796.970154,329
797.089233,327
797.208191,327
797.327271,319
797.446228,325
797.565186,336
797.684265,328
797.803223,332
797.922241,323
798.04126,323
798.160278,316
798.279297,322
798.398315,337
798.517273,327
798.636292,329
798.75531,311
798.874268,318
798.993286,323
799.112244,318
799.231323,322
799.350281,339
799.469238,320
799.588257,312
799.707153,325
799.826111,319
799.945129,322
800.064087,334
800.183044,325
800.302063,312
800.421021,330
800.539978,340
800.658936,317
800.777893,316
800.896912,330
801.015747,333
801.134705,310
801.253723,321
801.37262,325
801.491638,338
801.610535,311
801.729492,327
801.84845,323
801.967407,331
802.086243,330
802.205261,313
802.324158,329
802.443115,319
802.562073,327
802.680969,324
802.799927,312
802.918762,338
803.037659,312
803.156677,323
803.275574,309
803.39447,323
803.513428,320
803.632263,322
803.751221,315
803.870117,319
803.989014,328
804.107971,325
804.226746,316
804.345642,329
804.4646,317
804.583496,322
804.702393,319
804.821228,329
804.940125,321
805.059021,331
805.177917,314
805.296814,320
805.415649,320
805.534546,313
805.653442,322
805.772278,327
805.891113,319
806.01001,327
806.128906,311
806.247742,329
806.366577,314
806.485413,321
806.604309,325
806.723145,333
806.84198,316
806.960876,328
807.079712,320
807.198486,325
807.317383,339
807.436218,331
807.554993,313
807.673889,322
807.792725,339
807.91156,313
808.030396,325
808.14917,324
808.268005,312
808.386841,320
808.505676,332
808.624451,323
808.743286,319
808.862122,331
808.980896,321
809.099731,330
809.218506,319
809.337341,329
809.456116,325
809.57489,315
809.693726,332
809.8125,323
809.931274,312
810.050049,314
810.168884,315
810.287659,332
810.406372,323
810.525269,321
810.643982,318
810.762756,317
810.881531,322
811.000305,319
811.11908,324
811.237854,326
811.356567,327
811.475403,319
811.594116,319
811.71283,320
811.831604,324
811.950378,324
812.069153,320
812.187927,324
812.30658,323
812.425415,323
812.544128,320
812.662781,319
812.781616,326
812.900269,318
813.019043,301
813.137756,317
813.256531,330
813.375244,308
813.493896,310
813.612671,320
813.731384,322
813.850037,336
813.96875,324
814.087524,313
814.206238,307
814.324951,324
814.443604,323
814.562256,324
814.68103,317
814.799683,326
814.918335,313
815.037109,325
815.155762,329
815.274475,316
815.393188,324
815.511841,313
815.630554,313
815.749146,332
815.867859,322
815.986572,327
816.105164,325
816.223877,321
816.342529,325
816.461182,329
816.579895,332
816.698486,320
816.817139,321
816.935791,340
817.054504,321
817.173096,333
817.291748,319
817.4104,331
817.529053,323
817.647644,326
817.766235,321
817.884949,321
818.00354,328
818.122192,324
818.240845,330
818.359436,312
818.478088,312
818.59668,332
818.715271,323
818.833923,316
818.952515,320
819.071106,327
819.189758,311
819.30835,320
819.426941,313
819.545532,323
819.664124,312
819.782715,330
819.901306,307
820.019897,317
820.138489,309
820.25708,323
820.375671,328
820.494202,316
820.612732,328
820.731384,317
820.849915,313
820.968506,323
821.087097,311
821.205627,311
821.324158,315
821.442749,321
821.561279,311
821.679871,311
821.798401,313
821.916931,320
822.035461,312
822.154053,332
822.272583,307
822.391174,319
822.509583,312
822.628174,319
822.746704,307
822.865234,329
822.983765,329
823.102295,323
823.220825,310
823.339294,317
823.457825,300
823.576355,326
823.694824,317
823.813354,317
823.931885,327
824.050354,314
824.168884,320
824.287354,314
824.405823,314
824.524353,305
824.642822,333
824.761353,319
824.879822,309
824.998291,308
825.116699,322
825.235291,319
825.353699,311
825.472168,326
825.590637,314
825.709106,323
825.827576,314
825.946045,320
826.064453,322
826.182983,319
826.301392,328
826.4198,309
826.53833,313
826.656738,308
826.775208,300
826.893677,331
827.012024,309
827.130493,309
827.248962,332
827.36731,317
827.485779,311
827.604248,309
827.722595,313
827.841064,318
827.959412,316
828.077942,320
828.196289,322
828.314636,314
828.433105,316
828.551514,311
828.669861,309
828.78833,330
828.906677,313
829.025085,325
829.143433,316
829.261841,328
829.38031,305
829.498657,310
829.617004,311
829.735413,311
829.85376,312
829.972107,320
830.090515,319
830.208862,321
830.327209,321
830.445557,317
830.563904,323
830.682312,319
830.800659,306
830.919006,320
831.037354,326
831.155701,325
831.274048,307
831.392395,315
831.51062,311
831.629028,324
831.747314,313
831.865662,307
831.984009,314
832.102356,322
832.220642,318
832.338928,319
832.457275,309
832.575623,322
832.693909,303
832.812134,321
832.930481,301
833.048828,321
833.167114,307
833.2854,317
833.403687,312
833.521973,333
833.640259,323
833.758545,320
833.876831,328
833.995056,328
834.113281,324
834.231628,312
834.349915,326
834.468201,313
834.586426,316
834.704651,312
834.822998,327
834.941162,317
835.059448,307
835.177673,310
835.295959,317
835.414246,315
835.53241,313
835.650635,298
835.768921,322
835.887146,313
836.005371,312
836.123596,315
836.241821,310
836.360046,327
836.478271,309
836.596497,322
836.714722,309
836.832886,323
836.95105,304
837.069336,311
837.1875,295
837.305725,315
837.423889,323
837.542053,308
837.660339,307
837.778503,326
837.896667,319
838.014832,312
838.132996,315
838.25116,316
838.369385,318
838.487488,315
838.605713,312
838.723877,318
838.84198,303
838.960205,318
839.078308,327
839.196472,313
839.314636,318
839.4328,325
839.550964,320
839.669067,322
839.787231,312
839.905396,326
840.023499,311
840.141602,326
840.259766,318
840.377869,320
840.495972,308
840.614136,314
840.732239,316
840.850342,308
840.968445,326
841.086548,329
841.204651,314
841.322754,310
841.440918,318
841.55896,321
841.677002,304
841.795166,320
841.913208,312
842.031311,319
842.149353,312
842.267456,309
842.385498,321
842.503601,321
842.621643,318
842.739746,321
842.857788,316
842.97583,318
843.093933,304
843.211975,338
843.330017,302
843.44812,320
843.566101,300
843.684204,305
843.802246,313
843.920227,315
844.038269,316
844.156311,327
844.274292,316
844.392395,320
844.510376,323
844.628357,323
844.74646,313
844.864441,329
844.982422,317
845.100403,331
845.218384,305
845.336426,328
845.454468,311
845.572449,322
845.69043,327
845.808411,321
845.926453,319
846.044373,320
846.162354,315
846.280396,323
846.398315,317
846.516296,322
846.634216,308
846.752197,324
846.870178,320
846.988098,321
847.106079,313
847.22406,313
847.34198,311
847.4599,321
847.577881,323
847.695801,321
847.813782,309
847.931641,317
848.049561,318
848.167603,324
848.285461,294
848.403381,311
848.521362,303
848.639221,327
848.75708,323
848.875,321
848.99292,301
849.110901,318
849.22876,333
849.34668,326
849.464539,305
849.582458,333
849.700317,315
849.818176,326
849.936096,308
850.053955,335
850.171875,315
850.289673,327
850.407593,318
850.525452,310
850.643311,325
850.761169,325
850.878967,313
850.996887,317
851.114746,321
851.232544,326
851.350403,319
851.468262,323
851.58606,316
851.703979,321
851.821777,320
851.939636,314
852.057434,311
852.175232,323
852.293091,312
852.410889,322
852.528687,318
852.646545,325
852.764343,318
852.88208,325
852.999939,319
853.117676,320
853.235535,313
853.353271,323
853.471069,310
853.588928,329
853.706604,315
853.824402,305
853.9422,309
854.059998,323
854.177734,315
854.295532,304
854.413269,334
854.531006,316
854.648804,303
854.766541,332
854.884277,315
855.002014,322
855.119751,310
855.237549,321
855.355225,319
855.473022,323
855.590698,316
855.708435,315
855.826172,324
855.943848,333
856.061646,314
856.179321,324
856.296997,311
856.414795,315
856.53241,331
856.650085,311
856.767822,315
856.885559,312
857.003174,321
857.120911,331
857.238586,320
857.356201,317
857.473938,323
857.591614,320
857.709351,316
857.826965,318
857.944641,310
858.062317,314
858.179993,320
858.297668,313
858.415283,310
858.532959,321
858.650574,319
858.768188,308
858.885803,317
859.003479,323
859.121094,319
859.23877,326
859.356384,316
859.473999,310
859.591675,312
859.709229,322
859.826843,304
859.944458,327
860.062012,299
860.179626,334
860.297302,320
860.414856,315
860.532471,311
860.650024,319
860.767639,304
860.885193,323
861.002808,314
861.120361,322
861.237976,324
861.35553,335
861.473022,311
861.590698,320
861.708191,304
861.825745,327
861.943298,311
862.060852,316
862.178406,316
862.295959,325
862.413513,316
862.531006,312
862.64856,311
862.766113,314
862.883667,323
863.00116,317
863.118713,319
863.236206,328
863.353699,304
863.471252,328
863.588745,310
863.706177,318
863.82373,307
863.941162,337
864.058716,318
864.176208,316
864.29364,318
864.411194,332
864.528687,314
864.646118,326
864.763611,302
864.881042,318
864.998535,305
865.116028,321
865.233459,321
865.350891,328
865.468384,311
865.585754,314
865.703308,316
865.820679,316
865.938171,318
866.055542,313
866.173035,315
866.290466,312
866.407837,330
866.52533,333
866.6427,321
866.760071,321
866.877563,302
866.994934,309
867.112305,319
867.229736,316
867.347107,311
867.464539,311
867.58197,307
867.699341,324
867.81665,316
867.934082,319
868.051453,310
868.168823,320
868.286194,308
868.403564,312
868.520935,325
868.638306,319
868.755676,309
868.872986,324
868.990295,317
869.107727,315
869.225037,319
869.342346,318
869.459717,308
869.577026,323
869.694336,310
869.811707,310
869.929016,315
870.046326,322
870.163635,302
870.280945,331
870.398254,315
870.515564,331
870.632812,309
870.750183,318
870.867432,317
870.984741,314
871.102051,315
871.219299,332
871.336609,308
871.453918,323
871.571106,311
871.688416,326
871.805664,313
871.922852,327
872.040222,315
872.157471,319
872.274719,311
872.391968,322
872.509155,312
872.626465,332
872.743652,315
872.860962,339
872.978149,311
873.095337,308
873.212646,324
873.329834,325
873.44696,314
873.564209,326
873.681396,320
873.798645,323
873.915894,309
874.03302,330
874.150208,316
874.267456,311
874.384583,325
874.501831,318
874.618958,327
874.736145,323
874.853333,328
874.970459,331
875.087646,318
875.204834,335
875.32196,326
875.439148,317
875.556274,311
875.673401,327
875.790527,308
875.907715,318
876.024841,299
876.141968,328
876.259094,315
876.376282,307
876.493347,326
876.610474,311
876.7276,322
876.844727,315
876.961853,325
877.078918,308
877.195984,302
877.313171,327
877.430237,313
877.547302,329
877.664368,323
877.781433,326
877.898499,323
878.015625,309
878.13269,318
878.249695,316
878.366821,320
878.483887,325
878.600952,331
878.717957,328
878.834961,327
878.952087,316
879.069092,296
879.186157,324
879.303162,321
879.420227,324
879.537231,310
879.654236,318
879.77124,307
879.888306,331
880.005249,311
880.122314,317
880.239319,313
880.356323,316
880.473328,316
880.590271,325
880.707275,317
880.824341,316
880.941284,303
881.058228,318
881.175232,304
881.292236,318
881.40918,319
881.526123,315
881.643066,322
881.760071,325
881.877014,324
881.993958,313
882.11084,314
882.227783,328
882.344727,320
882.46167,319
882.578613,326
882.695618,329
882.812439,308
882.929382,319
883.046326,302
883.163208,328
883.280151,321
883.397034,311
883.513916,312
883.630798,334
883.747742,306
883.864563,316
883.981506,316
884.098389,325
884.21521,308
884.332153,307
884.448975,317
884.565796,323
884.682678,319
884.7995,314
884.916443,321
885.033264,318
885.150085,308
885.266968,332
885.383789,319
885.500671,316
885.617493,311
885.734314,323
885.851196,317
885.967896,314
886.084717,317
886.201599,323
886.318359,318
886.435181,319
886.552002,316
886.668762,328
886.785645,310
886.902344,316
887.019165,325
887.135925,318
887.252747,335
887.369446,334
887.486267,325
887.603027,317
887.719788,320
887.836548,319
887.953247,322
888.070068,314
888.186829,319
888.303528,321
888.420288,317
888.536987,309
888.653687,302
888.770447,321
888.887146,320
889.003967,328
889.120667,309
889.237305,323
889.354065,319
889.470703,315
889.587463,313
889.704163,317
889.820862,311
889.937561,302
890.054199,315
890.170837,320
890.287598,311
890.404236,323
890.520874,302
890.637634,317
890.754211,314
890.87085,327
890.987549,308
891.104187,324
891.220886,329
891.337463,317
891.454102,318
891.57074,325
891.687378,321
891.804077,325
891.920654,311
892.037231,334
892.15387,310
892.270447,305
892.387085,314
892.503723,329
892.6203,306
892.736877,312
892.853516,317
892.970032,312
893.08667,318
893.203186,323
893.319763,307
893.43634,332
893.552917,310
893.669556,315
893.786011,303
893.902588,317
894.019165,318
894.135681,309
894.252197,319
894.368835,314
894.485291,317
894.601868,324
894.718384,312
894.8349,314
894.951355,309
895.067932,310
895.184448,311
895.300964,303
895.417419,318
895.533936,318
895.650452,314
895.766907,329
895.883423,319
895.999878,322
896.116333,325
896.232849,332
896.349304,321
896.465759,320
896.582214,326
896.698669,325
896.815125,306
896.931641,319
897.048035,314
897.164551,309
897.280884,305
897.397339,325
897.513794,307
897.630249,322
897.746582,317
897.863098,322
897.979431,313
898.095886,328
898.212341,313
898.328674,330
898.445129,319
898.561462,331
898.677795,308
898.794312,324
898.910645,315
899.026978,314
899.143433,306
899.259766,307
899.37616,313
899.492493,309
899.608765,319
899.725159,310
899.841553,328
899.957947,306
900.07428,311
900.190552,301
900.306946,322
900.423157,318
900.53949,311
900.655884,317
900.772156,306
900.888489,323
901.004822,313
901.121033,318
901.237366,326
901.353699,328
901.46991,335
901.586304,321
901.702515,316
901.818787,310
901.93512,324
902.051331,325
902.167603,317
902.283875,328
902.400085,325
902.516418,311
902.632629,317
902.74884,327
902.865112,320
902.981384,315
903.097595,309
903.213867,333
903.330017,322
903.446289,311
903.5625,326
903.67865,325
903.794922,310
903.911072,320
904.027344,319
904.143494,324
904.259705,322
904.375916,322
904.492065,301
904.608215,317
904.724426,313
904.840576,316
904.956726,311
905.072876,324
905.189087,309
905.305176,327
905.421387,315
905.537537,338
905.653687,320
905.769775,316
905.885925,313
906.002014,312
906.118164,323
906.234314,309
906.350403,305
906.466492,322
906.582642,297
906.69873,330
906.814758,309
906.930908,317
907.046936,319
907.163086,323
907.279175,297
907.395264,324
907.511353,299
907.62738,306
907.743408,312
907.859497,314
907.975525,313
908.091553,329
908.207703,321
908.32373,305
908.439758,298
908.555786,333
908.671814,317
908.787842,310
908.90387,307
909.019775,315
909.135864,309
909.251892,319
909.367859,317
909.483826,315
909.599854,320
909.715881,331
909.831848,317
909.947815,328
910.063782,318
910.179749,323
910.295776,324
910.411743,317
910.527649,312
910.643616,333
910.759583,316
910.875488,323
910.991455,308
911.107361,313
911.223267,315
911.339294,318
911.4552,311
911.571106,310
911.687073,315
911.802979,316
911.918823,323
912.034729,321
912.150635,324
912.266602,319
912.382446,313
912.498352,310
912.614197,307
912.730103,322
912.846008,308
792.44574,331
792.56488,356
792.68396,402
792.80304,381
792.92218,356
793.041199,332
793.160339,337
793.279419,360
793.398499,352
793.517578,331
793.636658,319
793.755737,340
793.874817,341
793.993896,358
794.112976,325
794.232056,341
794.351074,334
794.470215,334
794.589233,332
794.708313,317
794.827393,328
794.946411,356
795.065552,347
795.18457,329
795.303589,342
795.422668,321
795.541687,321
795.660767,338
795.779846,335
795.898865,335
796.017883,322
796.136963,330
796.255981,328
796.375061,334
796.49408,334
796.613037,325
796.732117,328
796.851135,332
796.970154,336
797.089233,334
797.208191,336
797.327271,321
797.446228,322
797.565186,324
797.684265,322
797.803223,329
797.922241,324
798.04126,329
798.160278,334
798.279297,330
798.398315,328
798.517273,319
798.636292,333
798.75531,318
798.874268,319
798.993286,330
799.112244,319
799.231323,337
799.350281,325
799.469238,320
799.588257,323
799.707153,339
799.826111,320
799.945129,328
800.064087,334
800.183044,334
800.302063,339
800.421021,317
800.539978,326
800.658936,333
800.777893,333
800.896912,336
801.015747,323
801.134705,334
801.253723,315
801.37262,332
801.491638,326
801.610535,319
801.729492,316
801.84845,317
801.967407,333
802.086243,313
802.205261,325
802.324158,331
802.443115,324
802.562073,320
802.680969,322
802.799927,323
802.918762,325
803.037659,323
803.156677,327
803.275574,324
803.39447,321
803.513428,316
803.632263,336
803.751221,315
803.870117,323
803.989014,315
804.107971,323
804.226746,314
804.345642,327
804.4646,336
804.583496,309
804.702393,310
804.821228,317
804.940125,334
805.059021,317
805.177917,319
805.296814,320
805.415649,325
805.534546,318
805.653442,326
805.772278,320
805.891113,330
806.01001,319
806.128906,319
806.247742,339
806.366577,315
806.485413,322
806.604309,337
806.723145,322
806.84198,329
806.960876,318
807.079712,318
807.198486,317
807.317383,325
807.436218,331
807.554993,323
807.673889,320
807.792725,324
807.91156,325
808.030396,322
808.14917,325
808.268005,315
808.386841,326
808.505676,311
808.624451,318
808.743286,323
808.862122,322
808.980896,325
809.099731,328
809.218506,325
809.337341,320
809.456116,323
809.57489,322
809.693726,310
809.8125,328
809.931274,322
810.050049,324
810.168884,305
810.287659,326
810.406372,331
810.525269,325
810.643982,321
810.762756,322
810.881531,314
811.000305,323
811.11908,317
811.237854,316
811.356567,327
811.475403,314
811.594116,314
811.71283,332
811.831604,326
811.950378,310
812.069153,313
812.187927,332
812.30658,318
812.425415,325
812.544128,322
812.662781,309
812.781616,330
812.900269,320
813.019043,318
813.137756,333
813.256531,308
813.375244,311
813.493896,332
813.612671,315
813.731384,315
813.850037,322
813.96875,314
814.087524,324
814.206238,311
814.324951,311
814.443604,324
814.562256,311
814.68103,334
814.799683,321
814.918335,329
815.037109,318
815.155762,327
815.274475,326
815.393188,319
815.511841,323
815.630554,329
815.749146,323
815.867859,314
815.986572,320
816.105164,320
816.223877,316
816.342529,315
816.461182,314
816.579895,321
816.698486,331
816.817139,321
816.935791,321
817.054504,308
817.173096,322
817.291748,317
817.4104,333
817.529053,316
817.647644,324
817.766235,320
817.884949,323
818.00354,315
818.122192,313
818.240845,329
818.359436,310
818.478088,314
818.59668,319
818.715271,319
818.833923,307
818.952515,311
819.071106,314
819.189758,301
819.30835,329
819.426941,326
819.545532,307
819.664124,322
819.782715,325
819.901306,327
820.019897,316
820.138489,319
820.25708,328
820.375671,319
820.494202,321
820.612732,327
820.731384,303
820.849915,305
820.968506,311
821.087097,307
821.205627,327
821.324158,315
821.442749,319
821.561279,316
821.679871,313
821.798401,327
821.916931,312
822.035461,311
822.154053,315
822.272583,313
822.391174,315
822.509583,319
822.628174,315
822.746704,317
822.865234,326
822.983765,316
823.102295,319
823.220825,319
823.339294,313
823.457825,326
823.576355,317
823.694824,316
823.813354,320
823.931885,304
824.050354,328
824.168884,314
824.287354,313
824.405823,317
824.524353,320
824.642822,334
824.761353,313
824.879822,315
824.998291,308
825.116699,314
825.235291,313
825.353699,326
825.472168,312
825.590637,317
825.709106,315
825.827576,323
825.946045,314
826.064453,318
826.182983,321
826.301392,310
826.4198,312
826.53833,332
826.656738,316
826.775208,315
826.893677,318
827.012024,310
827.130493,312
827.248962,314
827.36731,324
827.485779,314
827.604248,321
827.722595,303
827.841064,309
827.959412,309
828.077942,309
828.196289,313
828.314636,312
828.433105,319
828.551514,297
828.669861,322
828.78833,313
828.906677,306
829.025085,313
829.143433,325
829.261841,321
829.38031,322
829.498657,319
829.617004,324
829.735413,306
829.85376,318
829.972107,309
830.090515,321
830.208862,315
830.327209,320
830.445557,323
830.563904,327
830.682312,307
830.800659,315
830.919006,316
831.037354,314
831.155701,324
831.274048,314
831.392395,307
831.51062,322
831.629028,331
831.747314,323
831.865662,313
831.984009,306
832.102356,315
832.220642,315
832.338928,310
832.457275,320
832.575623,318
832.693909,328
832.812134,305
832.930481,316
833.048828,321
833.167114,316
833.2854,304
833.403687,313
833.521973,319
833.640259,313
833.758545,324
833.876831,321
833.995056,313
834.113281,318
834.231628,313
834.349915,322
834.468201,317
834.586426,314
834.704651,310
834.822998,324
834.941162,312
835.059448,308
835.177673,311
835.295959,323
835.414246,310
835.53241,325
835.650635,303
835.768921,309
835.887146,304
836.005371,316
836.123596,307
836.241821,319
836.360046,304
836.478271,318
836.596497,320
836.714722,315
836.832886,313
836.95105,302
837.069336,317
837.1875,315
837.305725,313
837.423889,321
837.542053,322
837.660339,322
837.778503,301
837.896667,309
838.014832,311
838.132996,310
838.25116,318
838.369385,309
838.487488,321
838.605713,308
838.723877,315
838.84198,308
838.960205,314
839.078308,313
839.196472,313
839.314636,310
839.4328,301
839.550964,317
839.669067,320
839.787231,315
839.905396,308
840.023499,322
840.141602,302
840.259766,312
840.377869,313
840.495972,321
840.614136,321
840.732239,316
840.850342,316
840.968445,320
841.086548,314
841.204651,335
841.322754,321
841.440918,324
841.55896,322
841.677002,319
841.795166,317
841.913208,317
842.031311,309
842.149353,309
842.267456,322
842.385498,327
842.503601,311
842.621643,309
842.739746,319
842.857788,325
842.97583,324
843.093933,309
843.211975,315
843.330017,328
843.44812,313
843.566101,336
843.684204,325
843.802246,319
843.920227,322
844.038269,323
844.156311,315
844.274292,321
844.392395,319
844.510376,323
844.628357,316
844.74646,331
844.864441,311
844.982422,319
845.100403,317
845.218384,315
845.336426,312
845.454468,309
845.572449,303
845.69043,309
845.808411,311
845.926453,324
846.044373,324
846.162354,322
846.280396,313
846.398315,343
846.516296,322
846.634216,310
846.752197,316
846.870178,316
846.988098,314
847.106079,337
847.22406,309
847.34198,302
847.4599,326
847.577881,318
847.695801,316
847.813782,326
847.931641,330
848.049561,312
848.167603,322
848.285461,317
848.403381,314
848.521362,316
848.639221,319
848.75708,320
848.875,303
848.99292,327
849.110901,313
849.22876,312
849.34668,316
849.464539,335
849.582458,318
849.700317,308
849.818176,320
849.936096,308
850.053955,311
850.171875,324
850.289673,313
850.407593,330
850.525452,306
850.643311,321
850.761169,323
850.878967,330
850.996887,306
851.114746,324
851.232544,326
851.350403,318
851.468262,313
851.58606,312
851.703979,321
851.821777,315
851.939636,310
852.057434,303
852.175232,330
852.293091,323
852.410889,321
852.528687,330
852.646545,324
852.764343,326
852.88208,313
852.999939,311
853.117676,321
853.235535,314
853.353271,312
853.471069,313
853.588928,328
853.706604,319
853.824402,312
853.9422,327
854.059998,304
854.177734,315
854.295532,320
854.413269,312
854.531006,306
854.648804,315
854.766541,323
854.884277,302
855.002014,322
855.119751,329
855.237549,315
855.355225,318
855.473022,314
855.590698,322
855.708435,323
855.826172,328
855.943848,316
856.061646,320
856.179321,309
856.296997,313
856.414795,306
856.53241,320
856.650085,321
856.767822,318
856.885559,321
857.003174,315
857.120911,324
857.238586,314
857.356201,317
857.473938,311
857.591614,302
857.709351,330
857.826965,304
857.944641,323
858.062317,321
858.179993,319
858.297668,319
858.415283,312
858.532959,321
858.650574,328
858.768188,307
858.885803,318
859.003479,321
859.121094,316
859.23877,311
859.356384,315
859.473999,320
859.591675,318
859.709229,308
859.826843,325
859.944458,318
860.062012,323
860.179626,328
860.297302,319
860.414856,311
860.532471,325
860.650024,308
860.767639,311
860.885193,316
861.002808,326
861.120361,312
861.237976,320
861.35553,311
861.473022,317
861.590698,331
861.708191,318
861.825745,302
861.943298,332
862.060852,311
862.178406,324
862.295959,313
862.413513,325
862.531006,327
862.64856,311
862.766113,322
862.883667,318
863.00116,323
863.118713,317
863.236206,312
863.353699,323
863.471252,318
863.588745,317
863.706177,318
863.82373,316
863.941162,297
864.058716,319
864.176208,318
864.29364,313
864.411194,312
864.528687,315
864.646118,312
864.763611,318
864.881042,318
864.998535,310
865.116028,321
865.233459,308
865.350891,324
865.468384,313
865.585754,309
865.703308,330
865.820679,317
865.938171,332
866.055542,297
866.173035,316
866.290466,320
866.407837,310
866.52533,332
866.6427,322
866.760071,316
866.877563,317
866.994934,320
867.112305,320
867.229736,300
867.347107,323
867.464539,319
867.58197,319
867.699341,306
867.81665,321
867.934082,312
868.051453,324
868.168823,313
868.286194,319
868.403564,306
868.520935,312
868.638306,309
868.755676,318
868.872986,316
868.990295,324
869.107727,324
869.225037,313
869.342346,323
869.459717,321
869.577026,313
869.694336,319
869.811707,303
869.929016,331
870.046326,300
870.163635,314
870.280945,320
870.398254,316
870.515564,315
870.632812,325
870.750183,322
870.867432,324
870.984741,336
871.102051,319
871.219299,322
871.336609,320
871.453918,322
871.571106,327
871.688416,314
871.805664,313
871.922852,323
872.040222,313
872.157471,315
872.274719,308
872.391968,331
872.509155,312
872.626465,316
872.743652,316
872.860962,311
872.978149,309
873.095337,322
873.212646,305
873.329834,314
873.44696,312
873.564209,335
873.681396,316
873.798645,308
873.915894,319
874.03302,322
874.150208,324
874.267456,318
874.384583,321
874.501831,311
874.618958,312
874.736145,318
874.853333,334
874.970459,322
875.087646,312
875.204834,308
875.32196,331
875.439148,317
875.556274,325
875.673401,320
875.790527,326
875.907715,305
876.024841,323
876.141968,311
876.259094,313
876.376282,308
876.493347,325
876.610474,322
876.7276,323
876.844727,331
876.961853,318
877.078918,308
877.195984,323
877.313171,332
877.430237,309
877.547302,313
877.664368,324
877.781433,319
877.898499,317
878.015625,336
878.13269,324
878.249695,316
878.366821,329
878.483887,327
878.600952,319
878.717957,301
878.834961,317
878.952087,316
879.069092,319
879.186157,327
879.303162,319
879.420227,322
879.537231,326
879.654236,317
879.77124,315
879.888306,306
880.005249,323
880.122314,311
880.239319,311
880.356323,318
880.473328,314
880.590271,321
880.707275,317
880.824341,317
880.941284,327
881.058228,319
881.175232,323
881.292236,321
881.40918,319
881.526123,313
881.643066,324
881.760071,308
881.877014,308
881.993958,310
882.11084,318
882.227783,301
882.344727,323
882.46167,319
882.578613,314
882.695618,320
882.812439,321
882.929382,315
883.046326,319
883.163208,314
883.280151,318
883.397034,315
883.513916,324
883.630798,309
883.747742,314
883.864563,302
883.981506,312
884.098389,319
884.21521,317
884.332153,312
884.448975,328
884.565796,319
884.682678,320
884.7995,321
884.916443,327
885.033264,315
885.150085,328
885.266968,324
885.383789,317
885.500671,321
885.617493,332
885.734314,324
885.851196,327
885.967896,323
886.084717,325
886.201599,323
886.318359,327
886.435181,324
886.552002,333
886.668762,324
886.785645,309
886.902344,319
887.019165,312
887.135925,315
887.252747,323
887.369446,332
887.486267,306
887.603027,311
887.719788,331
887.836548,318
887.953247,320
888.070068,322
888.186829,325
888.303528,309
888.420288,314
888.536987,318
888.653687,336
888.770447,312
888.887146,320
889.003967,318
889.120667,316
889.237305,314
889.354065,330
889.470703,317
889.587463,304
889.704163,320
889.820862,313
889.937561,322
890.054199,317
890.170837,319
890.287598,331
890.404236,313
890.520874,325
890.637634,315
890.754211,315
890.87085,314
890.987549,325
891.104187,321
891.220886,327
891.337463,297
891.454102,314
891.57074,303
891.687378,315
891.804077,315
891.920654,306
892.037231,317
892.15387,311
892.270447,320
892.387085,301
892.503723,312
892.6203,325
892.736877,324
892.853516,312
892.970032,310
893.08667,304
893.203186,316
893.319763,311
893.43634,323
893.552917,319
893.669556,319
893.786011,327
893.902588,320
894.019165,326
894.135681,312
894.252197,313
894.368835,300
894.485291,315
894.601868,317
894.718384,319
894.8349,313
894.951355,311
895.067932,314
895.184448,332
895.300964,315
895.417419,322
895.533936,321
895.650452,316
895.766907,316
895.883423,307
895.999878,319
896.116333,314
896.232849,317
896.349304,307
896.465759,307
896.582214,318
896.698669,311
896.815125,325
896.931641,313
897.048035,329
897.164551,308
897.280884,316
897.397339,314
897.513794,321
897.630249,317
897.746582,313
897.863098,319
897.979431,316
898.095886,309
898.212341,315
898.328674,311
898.445129,314
898.561462,321
898.677795,322
898.794312,317
898.910645,316
899.026978,312
899.143433,308
899.259766,320
899.37616,316
899.492493,306
899.608765,314
899.725159,317
899.841553,321
899.957947,299
900.07428,320
900.190552,320
900.306946,312
900.423157,325
900.53949,309
900.655884,309
900.772156,330
900.888489,329
901.004822,313
901.121033,308
901.237366,316
901.353699,307
901.46991,316
901.586304,317
901.702515,339
901.818787,319
901.93512,309
902.051331,317
902.167603,317
902.283875,326
902.400085,318
902.516418,324
902.632629,316
902.74884,313
902.865112,310
902.981384,315
903.097595,328
903.213867,325
903.330017,312
903.446289,317
903.5625,323
903.67865,316
903.794922,333
903.911072,334
904.027344,319
904.143494,311
904.259705,312
904.375916,318
904.492065,332
904.608215,317
904.724426,324
904.840576,319
904.956726,302
905.072876,317
905.189087,327
905.305176,320
905.421387,319
905.537537,314
905.653687,312
905.769775,317
905.885925,320
906.002014,314
906.118164,319
906.234314,321
906.350403,317
906.466492,305
906.582642,327
906.69873,318
906.814758,318
906.930908,309
907.046936,314
907.163086,309
907.279175,312
907.395264,311
907.511353,326
907.62738,312
907.743408,321
907.859497,318
907.975525,315
908.091553,319
908.207703,315
908.32373,315
908.439758,309
908.555786,315
908.671814,314
908.787842,310
908.90387,315
909.019775,305
909.135864,321
909.251892,319
909.367859,322
909.483826,330
909.599854,325
909.715881,308
909.831848,319
909.947815,318
910.063782,306
910.179749,323
910.295776,320
910.411743,324
910.527649,308
910.643616,305
910.759583,328
910.875488,315
910.991455,328
911.107361,328
911.223267,314
911.339294,314
911.4552,327
911.571106,317
911.687073,318
911.802979,318
911.918823,321
912.034729,322
912.150635,325
912.266602,320
912.382446,324
912.498352,318
912.614197,322
912.730103,317
912.846008,307
792.44574,341
792.56488,369
792.68396,408
792.80304,382
792.92218,352
793.041199,332
793.160339,329
793.279419,337
793.398499,335
793.517578,319
793.636658,328
793.755737,343
793.874817,352
793.993896,358
794.112976,334
794.232056,345
794.351074,332
794.470215,336
794.589233,328
794.708313,342
794.827393,336
794.946411,332
795.065552,337
795.18457,337
795.303589,337
795.422668,324
795.541687,334
795.660767,332
795.779846,345
795.898865,332
796.017883,333
796.136963,321
796.255981,333
796.375061,336
796.49408,340
796.613037,325
796.732117,339
796.851135,337
796.970154,332
797.089233,330
797.208191,327
797.327271,318
797.446228,330
797.565186,324
797.684265,319
797.803223,320
797.922241,326
798.04126,315
798.160278,320
798.279297,330
798.398315,338
798.517273,329
798.636292,324
798.75531,329
798.874268,329
798.993286,329
799.112244,330
799.231323,328
799.350281,336
799.469238,319
799.588257,330
799.707153,320
799.826111,332
799.945129,315
800.064087,329
800.183044,321
800.302063,316
800.421021,318
800.539978,336
800.658936,343
800.777893,328
800.896912,334
801.015747,316
801.134705,331
801.253723,328
801.37262,332
801.491638,323
801.610535,323
801.729492,320
801.84845,321
801.967407,326
802.086243,336
802.205261,316
802.324158,319
802.443115,321
802.562073,312
802.680969,318
802.799927,320
802.918762,322
803.037659,323
803.156677,308
803.275574,327
803.39447,325
803.513428,323
803.632263,309
803.751221,317
803.870117,323
803.989014,330
804.107971,334
804.226746,330
804.345642,315
804.4646,326
804.583496,328
804.702393,330
804.821228,315
804.940125,327
805.059021,323
805.177917,316
805.296814,327
805.415649,323
805.534546,312
805.653442,331
805.772278,319
805.891113,337
806.01001,309
806.128906,336
806.247742,322
806.366577,316
806.485413,318
806.604309,320
806.723145,311
806.84198,331
806.960876,319
807.079712,325
807.198486,320
807.317383,322
807.436218,337
807.554993,326
807.673889,313
807.792725,325
807.91156,316
808.030396,318
808.14917,316
808.268005,325
808.386841,311
808.505676,317
808.624451,316
808.743286,338
808.862122,319
808.980896,309
809.099731,313
809.218506,315
809.337341,340
809.456116,326
809.57489,322
809.693726,317
809.8125,310
809.931274,319
810.050049,305
810.168884,311
810.287659,323
810.406372,321
810.525269,323
810.643982,323
810.762756,327
810.881531,322
811.000305,324
811.11908,319
811.237854,322
811.356567,313
811.475403,330
811.594116,326
811.71283,337
811.831604,318
811.950378,331
812.069153,329
812.187927,320
812.30658,327
812.425415,322
812.544128,318
812.662781,316
812.781616,329
812.900269,315
813.019043,330
813.137756,327
813.256531,317
813.375244,317
813.493896,316
813.612671,332
813.731384,325
813.850037,325
813.96875,309
814.087524,315
814.206238,337
814.324951,323
814.443604,316
814.562256,324
814.68103,329
814.799683,323
814.918335,328
815.037109,329
815.155762,315
815.274475,310
815.393188,310
815.511841,316
815.630554,316
815.749146,330
815.867859,324
815.986572,320
816.105164,333
816.223877,322
816.342529,315
816.461182,332
816.579895,328
816.698486,313
816.817139,335
816.935791,335
817.054504,325
817.173096,318
817.291748,307
817.4104,326
817.529053,326
817.647644,329
817.766235,314
817.884949,315
818.00354,323
818.122192,317
818.240845,327
818.359436,318
818.478088,324
818.59668,320
818.715271,310
818.833923,324
818.952515,324
819.071106,310
819.189758,327
819.30835,336
819.426941,326
819.545532,312
819.664124,325
819.782715,301
819.901306,320
820.019897,318
820.138489,319
820.25708,325
820.375671,326
820.494202,303
820.612732,320
820.731384,312
820.849915,323
820.968506,317
821.087097,315
821.205627,318
821.324158,328
821.442749,319
821.561279,319
821.679871,316
821.798401,312
821.916931,327
822.035461,304
822.154053,310
822.272583,320
822.391174,320
822.509583,315
822.628174,319
822.746704,308
822.865234,317
822.983765,313
823.102295,322
823.220825,318
823.339294,328
823.457825,305
823.576355,312
823.694824,316
823.813354,312
823.931885,330
824.050354,322
824.168884,312
824.287354,310
824.405823,321
824.524353,322
824.642822,315
824.761353,317
824.879822,317
824.998291,311
825.116699,314
825.235291,323
825.353699,318
825.472168,323
825.590637,320
825.709106,305
825.827576,314
825.946045,335
826.064453,321
826.182983,325
826.301392,316
826.4198,311
826.53833,310
826.656738,318
826.775208,309
826.893677,331
827.012024,337
827.130493,321
827.248962,315
827.36731,321
827.485779,333
827.604248,312
827.722595,324
827.841064,322
827.959412,314
828.077942,315
828.196289,314
828.314636,325
828.433105,311
828.551514,310
828.669861,319
828.78833,325
828.906677,329
829.025085,305
829.143433,324
829.261841,303
829.38031,315
829.498657,309
829.617004,325
829.735413,309
829.85376,306
829.972107,307
830.090515,307
830.208862,312
830.327209,314
830.445557,321
830.563904,322
830.682312,318
830.800659,324
830.919006,308
831.037354,307
831.155701,307
831.274048,328
831.392395,311
831.51062,315
831.629028,324
831.747314,323
831.865662,313
831.984009,311
832.102356,309
832.220642,314
832.338928,308
832.457275,312
832.575623,323
832.693909,324
832.812134,312
832.930481,309
833.048828,320
833.167114,319
833.2854,313
833.403687,306
833.521973,317
833.640259,329
833.758545,319
833.876831,318
833.995056,310
834.113281,328
834.231628,322
834.349915,307
834.468201,306
834.586426,316
834.704651,313
834.822998,320
834.941162,318
835.059448,317
835.177673,325
835.295959,326
835.414246,312
835.53241,319
835.650635,314
835.768921,310
835.887146,310
836.005371,309
836.123596,302
836.241821,307
836.360046,305
836.478271,326
836.596497,312
836.714722,333
836.832886,323
836.95105,302
837.069336,312
837.1875,321
837.305725,313
837.423889,323
837.542053,312
837.660339,324
837.778503,318
837.896667,315
838.014832,323
838.132996,310
838.25116,323
838.369385,312
838.487488,321
838.605713,309
838.723877,308
838.84198,322
838.960205,319
839.078308,317
839.196472,312
839.314636,308
839.4328,325
839.550964,325
839.669067,322
839.787231,327
839.905396,325
840.023499,318
840.141602,321
840.259766,302
840.377869,316
840.495972,323
840.614136,324
840.732239,312
840.850342,321
840.968445,315
841.086548,318
841.204651,316
841.322754,317
841.440918,326
841.55896,310
841.677002,327
841.795166,322
841.913208,331
842.031311,331
842.149353,330
842.267456,314
842.385498,318
842.503601,321
842.621643,316
842.739746,318
842.857788,321
842.97583,316
843.093933,315
843.211975,317
843.330017,322
843.44812,324
843.566101,307
843.684204,300
843.802246,314
843.920227,316
844.038269,316
844.156311,315
844.274292,320
844.392395,309
844.510376,313
844.628357,318
844.74646,329
844.864441,329
844.982422,331
845.100403,325
845.218384,317
845.336426,322
845.454468,317
845.572449,312
845.69043,318
845.808411,317
845.926453,315
846.044373,320
846.162354,298
846.280396,319
846.398315,303
846.516296,307
846.634216,313
846.752197,321
846.870178,317
846.988098,325
847.106079,320
847.22406,322
847.34198,318
847.4599,307
847.577881,318
847.695801,323
847.813782,317
847.931641,321
848.049561,323
848.167603,307
848.285461,318
848.403381,317
848.521362,323
848.639221,315
848.75708,323
848.875,320
848.99292,326
849.110901,312
849.22876,313
849.34668,312
849.464539,318
849.582458,311
849.700317,305
849.818176,317
849.936096,338
850.053955,308
850.171875,324
850.289673,312
850.407593,328
850.525452,319
850.643311,320
850.761169,322
850.878967,318
850.996887,315
851.114746,329
851.232544,321
851.350403,312
851.468262,313
851.58606,325
851.703979,313
851.821777,325
851.939636,313
852.057434,307
852.175232,307
852.293091,336
852.410889,312
852.528687,315
852.646545,318
852.764343,325
852.88208,321
852.999939,312
853.117676,319
853.235535,313
853.353271,310
853.471069,339
853.588928,310
853.706604,333
853.824402,308
853.9422,324
854.059998,315
854.177734,309
854.295532,308
854.413269,319
854.531006,327
854.648804,311
854.766541,318
854.884277,320
855.002014,313
855.119751,324
855.237549,325
855.355225,313
855.473022,317
855.590698,317
855.708435,306
855.826172,320
855.943848,310
856.061646,310
856.179321,332
856.296997,312
856.414795,305
856.53241,310
856.650085,318
856.767822,312
856.885559,318
857.003174,329
857.120911,314
857.238586,325
857.356201,325
857.473938,311
857.591614,314
857.709351,317
857.826965,308
857.944641,335
858.062317,313
858.179993,330
858.297668,309
858.415283,320
858.532959,299
858.650574,312
858.768188,328
858.885803,324
859.003479,297
859.121094,320
859.23877,302
859.356384,318
859.473999,323
859.591675,315
859.709229,311
859.826843,318
859.944458,307
860.062012,314
860.179626,310
860.297302,322
860.414856,313
860.532471,314
860.650024,311
860.767639,305
860.885193,309
861.002808,322
861.120361,329
861.237976,313
861.35553,310
861.473022,325
861.590698,315
861.708191,316
861.825745,319
861.943298,303
862.060852,306
862.178406,322
862.295959,320
862.413513,321
862.531006,315
862.64856,318
862.766113,320
862.883667,330
863.00116,308
863.118713,317
863.236206,306
863.353699,314
863.471252,320
863.588745,319
863.706177,309
863.82373,328
863.941162,321
864.058716,313
864.176208,309
864.29364,315
864.411194,308
864.528687,318
864.646118,307
864.763611,326
864.881042,315
864.998535,312
865.116028,319
865.233459,316
865.350891,315
865.468384,320
865.585754,306
865.703308,322
865.820679,319
865.938171,328
866.055542,322
866.173035,319
866.290466,312
866.407837,319
866.52533,310
866.6427,304
866.760071,323
866.877563,318
866.994934,319
867.112305,319
867.229736,320
867.347107,313
867.464539,307
867.58197,310
867.699341,329
867.81665,327
867.934082,311
868.051453,314
868.168823,322
868.286194,309
868.403564,312
868.520935,325
868.638306,309
868.755676,333
868.872986,312
868.990295,311
869.107727,312
869.225037,326
869.342346,328
869.459717,319
869.577026,325
869.694336,310
869.811707,317
869.929016,312
870.046326,306
870.163635,317
870.280945,308
870.398254,318
870.515564,306
870.632812,327
870.750183,326
870.867432,323
870.984741,312
871.102051,318
871.219299,322
871.336609,328
871.453918,319
871.571106,330
871.688416,313
871.805664,318
871.922852,319
872.040222,332
872.157471,318
872.274719,320
872.391968,316
872.509155,319
872.626465,324
872.743652,329
872.860962,323
872.978149,302
873.095337,314
873.212646,324
873.329834,316
873.44696,324
873.564209,307
873.681396,324
873.798645,319
873.915894,319
874.03302,306
874.150208,320
874.267456,321
874.384583,308
874.501831,332
874.618958,324
874.736145,310
874.853333,325
874.970459,311
875.087646,315
875.204834,324
875.32196,304
875.439148,309
875.556274,321
875.673401,315
875.790527,319
875.907715,307
876.024841,323
876.141968,307
876.259094,314
876.376282,321
876.493347,321
876.610474,297
876.7276,316
876.844727,310
876.961853,318
877.078918,319
877.195984,323
877.313171,325
877.430237,321
877.547302,308
877.664368,315
877.781433,314
877.898499,316
878.015625,314
878.13269,324
878.249695,313
878.366821,310
878.483887,319
878.600952,312
878.717957,320
878.834961,320
878.952087,314
879.069092,319
879.186157,309
879.303162,315
879.420227,309
879.537231,327
879.654236,324
879.77124,324
879.888306,316
880.005249,314
880.122314,321
880.239319,322
880.356323,316
880.473328,325
880.590271,302
880.707275,319
880.824341,309
880.941284,322
881.058228,317
881.175232,323
881.292236,321
881.40918,318
881.526123,308
881.643066,331
881.760071,319
881.877014,313
881.993958,303
882.11084,313
882.227783,305
882.344727,323
882.46167,332
882.578613,325
882.695618,303
882.812439,322
882.929382,312
883.046326,314
883.163208,314
883.280151,312
883.397034,313
883.513916,310
883.630798,322
883.747742,321
883.864563,325
883.981506,317
884.098389,314
884.21521,327
884.332153,323
884.448975,309
884.565796,324
884.682678,324
884.7995,325
884.916443,318
885.033264,327
885.150085,332
885.266968,323
885.383789,334
885.500671,316
885.617493,330
885.734314,322
885.851196,315
885.967896,325
886.084717,315
886.201599,325
886.318359,326
886.435181,316
886.552002,317
886.668762,327
886.785645,312
886.902344,319
887.019165,307
887.135925,322
887.252747,303
887.369446,317
887.486267,320
887.603027,310
887.719788,331
887.836548,321
887.953247,317
888.070068,318
888.186829,317
888.303528,308
888.420288,317
888.536987,312
888.653687,337
888.770447,319
888.887146,328
889.003967,325
889.120667,301
889.237305,322
889.354065,307
889.470703,308
889.587463,312
889.704163,303
889.820862,318
889.937561,314
890.054199,317
890.170837,322
890.287598,319
890.404236,315
890.520874,321
890.637634,319
890.754211,337
890.87085,327
890.987549,327
891.104187,319
891.220886,325
891.337463,331
891.454102,325
891.57074,296
891.687378,325
891.804077,323
891.920654,304
892.037231,316
892.15387,322
892.270447,320
892.387085,320
892.503723,316
892.6203,331
892.736877,325
892.853516,316
892.970032,310
893.08667,324
893.203186,314
893.319763,319
893.43634,320
893.552917,317
893.669556,323
893.786011,316
893.902588,319
894.019165,326
894.135681,310
894.252197,320
894.368835,319
894.485291,327
894.601868,322
894.718384,316
894.8349,307
894.951355,327
895.067932,313
895.184448,323
895.300964,310
895.417419,331
895.533936,305
895.650452,328
895.766907,314
895.883423,306
895.999878,320
896.116333,309
896.232849,310
896.349304,319
896.465759,325
896.582214,334
896.698669,311
896.815125,325
896.931641,308
897.048035,321
897.164551,318
897.280884,322
897.397339,306
897.513794,315
897.630249,319
897.746582,294
897.863098,319
897.979431,328
898.095886,304
898.212341,320
898.328674,308
898.445129,304
898.561462,330
898.677795,313
898.794312,313
898.910645,311
899.026978,319
899.143433,311
899.259766,316
899.37616,339
899.492493,305
899.608765,308
899.725159,313
899.841553,327
899.957947,330
900.07428,304
900.190552,314
900.306946,324
900.423157,320
900.53949,312
900.655884,314
900.772156,315
900.888489,312
901.004822,304
901.121033,315
901.237366,331
901.353699,317
901.46991,318
901.586304,321
901.702515,322
901.818787,307
901.93512,319
902.051331,323
902.167603,315
902.283875,300
902.400085,319
902.516418,315
902.632629,325
902.74884,300
902.865112,328
902.981384,312
903.097595,312
903.213867,333
903.330017,313
903.446289,310
903.5625,318
903.67865,311
903.794922,318
903.911072,307
904.027344,320
904.143494,314
904.259705,311
904.375916,307
904.492065,309
904.608215,314
904.724426,315
904.840576,317
904.956726,327
905.072876,306
905.189087,329
905.305176,313
905.421387,316
905.537537,311
905.653687,315
905.769775,312
905.885925,321
906.002014,313
906.118164,313
906.234314,320
906.350403,315
906.466492,306
906.582642,322
906.69873,318
906.814758,323
906.930908,312
907.046936,319
907.163086,307
907.279175,320
907.395264,315
907.511353,318
907.62738,312
907.743408,322
907.859497,321
907.975525,316
908.091553,312
908.207703,316
908.32373,320
908.439758,308
908.555786,313
908.671814,329
908.787842,327
908.90387,319
909.019775,318
909.135864,315
909.251892,318
909.367859,315
909.483826,318
909.599854,323
909.715881,312
909.831848,327
909.947815,317
910.063782,315
910.179749,302
910.295776,317
910.411743,317
910.527649,323
910.643616,308
910.759583,327
910.875488,313
910.991455,309
911.107361,327
911.223267,309
911.339294,322
911.4552,312
911.571106,320
911.687073,319
911.802979,308
911.918823,309
912.034729,325
912.150635,313
912.266602,318
912.382446,308
912.498352,316
912.614197,319
912.730103,307
912.846008,304
