792.44574,328
792.56488,363
792.68396,400
792.80304,383
792.92218,344
793.041199,328
793.160339,326
793.279419,347
793.398499,328
793.517578,305
793.636658,328
793.755737,333
793.874817,348
793.993896,349
794.112976,334
794.232056,333
794.351074,333
794.470215,312
794.589233,326
794.708313,321
794.827393,336
794.946411,336
795.065552,330
795.18457,328
795.303589,336
795.422668,329
795.541687,333
795.660767,338
795.779846,335
795.898865,320
796.017883,336
796.136963,338
796.255981,338
796.375061,330
796.49408,324
796.613037,335
796.732117,335
796.851135,314
796.970154,341
797.089233,314
797.208191,339
797.327271,315
797.446228,335
797.565186,329
797.684265,339
797.803223,317
797.922241,329
798.04126,328
798.160278,332
798.279297,316
798.398315,332
798.517273,338
798.636292,335
798.75531,313
798.874268,340
798.993286,333
799.112244,335
799.231323,322
799.350281,319
799.469238,315
799.588257,322
799.707153,325
799.826111,338
799.945129,324
800.064087,327
800.183044,320
800.302063,315
800.421021,348
800.539978,329
800.658936,326
800.777893,329
800.896912,328
801.015747,325
801.134705,333
801.253723,324
801.37262,334
801.491638,340
801.610535,318
801.729492,320
801.84845,322
801.967407,323
802.086243,316
802.205261,319
802.324158,335
802.443115,325
802.562073,331
802.680969,321
802.799927,325
802.918762,332
803.037659,316
803.156677,329
803.275574,327
803.39447,333
803.513428,325
803.632263,332
803.751221,348
803.870117,329
803.989014,342
804.107971,332
804.226746,322
804.345642,345
804.4646,324
804.583496,331
804.702393,327
804.821228,331
804.940125,327
805.059021,344
805.177917,321
805.296814,327
805.415649,331
805.534546,332
805.653442,321
805.772278,320
805.891113,330
806.01001,328
806.128906,334
806.247742,334
806.366577,321
806.485413,317
806.604309,335
806.723145,342
806.84198,324
806.960876,327
807.079712,333
807.198486,339
807.317383,330
807.436218,339
807.554993,315
807.673889,330
807.792725,326
807.91156,327
808.030396,332
808.14917,326
808.268005,316
808.386841,345
808.505676,338
808.624451,337
808.743286,325
808.862122,333
808.980896,333
809.099731,337
809.218506,318
809.337341,339
809.456116,327
809.57489,337
809.693726,337
809.8125,328
809.931274,330
810.050049,336
810.168884,321
810.287659,335
810.406372,340
810.525269,319
810.643982,334
810.762756,329
810.881531,351
811.000305,326
811.11908,315
811.237854,330
811.356567,334
811.475403,327
811.594116,333
811.71283,336
811.831604,327
811.950378,323
812.069153,334
812.187927,335
812.30658,317
812.425415,352
812.544128,327
812.662781,326
812.781616,331
812.900269,314
813.019043,321
813.137756,340
813.256531,337
813.375244,329
813.493896,336
813.612671,337
813.731384,316
813.850037,331
813.96875,335
814.087524,330
814.206238,337
814.324951,327
814.443604,311
814.562256,337
814.68103,324
814.799683,336
814.918335,334
815.037109,344
815.155762,319
815.274475,341
815.393188,317
815.511841,315
815.630554,337
815.749146,337
815.867859,322
815.986572,319
816.105164,320
816.223877,329
816.342529,333
816.461182,320
816.579895,319
816.698486,331
816.817139,338
816.935791,327
817.054504,327
817.173096,310
817.291748,321
817.4104,323
817.529053,328
817.647644,309
817.766235,327
817.884949,323
818.00354,317
818.122192,334
818.240845,319
818.359436,320
818.478088,317
818.59668,337
818.715271,330
818.833923,312
818.952515,321
819.071106,321
819.189758,321
819.30835,329
819.426941,322
819.545532,320
819.664124,320
819.782715,315
819.901306,314
820.019897,328
820.138489,318
820.25708,315
820.375671,318
820.494202,316
820.612732,317
820.731384,320
820.849915,331
820.968506,326
821.087097,325
821.205627,306
821.324158,303
821.442749,311
821.561279,315
821.679871,324
821.798401,321
821.916931,326
822.035461,318
822.154053,316
822.272583,322
822.391174,324
822.509583,311
822.628174,322
822.746704,324
822.865234,315
822.983765,300
823.102295,328
823.220825,308
823.339294,320
823.457825,319
823.576355,313
823.694824,325
823.813354,318
823.931885,330
824.050354,307
824.168884,321
824.287354,316
824.405823,315
824.524353,319
824.642822,329
824.761353,318
824.879822,305
824.998291,316
825.116699,322
825.235291,314
825.353699,314
825.472168,332
825.590637,319
825.709106,304
825.827576,308
825.946045,311
826.064453,316
826.182983,323
826.301392,306
826.4198,326
826.53833,325
826.656738,318
826.775208,308
826.893677,321
827.012024,299
827.130493,319
827.248962,318
827.36731,328
827.485779,315
827.604248,316
827.722595,317
827.841064,327
827.959412,308
828.077942,325
828.196289,320
828.314636,315
828.433105,311
828.551514,325
828.669861,316
828.78833,310
828.906677,325
829.025085,311
829.143433,317
829.261841,310
829.38031,309
829.498657,321
829.617004,324
829.735413,320
829.85376,314
829.972107,305
830.090515,315
830.208862,319
830.327209,311
830.445557,326
830.563904,313
830.682312,322
830.800659,307
830.919006,320
831.037354,321
831.155701,321
831.274048,311
831.392395,327
831.51062,316
831.629028,319
831.747314,327
831.865662,327
831.984009,320
832.102356,316
832.220642,304
832.338928,315
832.457275,308
832.575623,303
832.693909,329
832.812134,322
832.930481,307
833.048828,304
833.167114,306
833.2854,320
833.403687,314
833.521973,323
833.640259,312
833.758545,330
833.876831,318
833.995056,322
834.113281,309
834.231628,317
834.349915,308
834.468201,318
834.586426,315
834.704651,316
834.822998,314
834.941162,310
835.059448,324
835.177673,339
835.295959,311
835.414246,346
835.53241,322
835.650635,319
835.768921,308
835.887146,308
836.005371,329
836.123596,318
836.241821,317
836.360046,328
836.478271,314
836.596497,325
836.714722,315
836.832886,320
836.95105,309
837.069336,326
837.1875,314
837.305725,305
837.423889,326
837.542053,313
837.660339,317
837.778503,328
837.896667,322
838.014832,321
838.132996,315
838.25116,314
838.369385,313
838.487488,331
838.605713,323
838.723877,327
838.84198,324
838.960205,318
839.078308,308
839.196472,320
839.314636,329
839.4328,314
839.550964,319
839.669067,314
839.787231,327
839.905396,334
840.023499,304
840.141602,322
840.259766,305
840.377869,316
840.495972,321
840.614136,328
840.732239,317
840.850342,316
840.968445,322
841.086548,317
841.204651,314
841.322754,322
841.440918,321
841.55896,321
841.677002,315
841.795166,327
841.913208,305
842.031311,316
842.149353,311
842.267456,330
842.385498,314
842.503601,310
842.621643,314
842.739746,312
842.857788,315
842.97583,303
843.093933,297
843.211975,314
843.330017,325
843.44812,314
843.566101,314
843.684204,321
843.802246,311
843.920227,310
844.038269,320
844.156311,315
844.274292,305
844.392395,310
844.510376,306
844.628357,342
844.74646,303
844.864441,329
844.982422,323
845.100403,330
845.218384,318
845.336426,327
845.454468,304
845.572449,327
845.69043,322
845.808411,319
845.926453,315
846.044373,319
846.162354,313
846.280396,324
846.398315,317
846.516296,300
846.634216,308
846.752197,325
846.870178,309
846.988098,327
847.106079,308
847.22406,311
847.34198,317
847.4599,325
847.577881,322
847.695801,322
847.813782,304
847.931641,326
848.049561,319
848.167603,310
848.285461,325
848.403381,309
848.521362,313
848.639221,321
848.75708,312
848.875,319
848.99292,307
849.110901,308
849.22876,323
849.34668,310
849.464539,312
849.582458,308
849.700317,303
849.818176,326
849.936096,298
850.053955,313
850.171875,319
850.289673,320
850.407593,318
850.525452,321
850.643311,326
850.761169,318
850.878967,319
850.996887,312
851.114746,313
851.232544,330
851.350403,317
851.468262,312
851.58606,328
851.703979,325
851.821777,324
851.939636,314
852.057434,319
852.175232,329
852.293091,312
852.410889,331
852.528687,306
852.646545,323
852.764343,311
852.88208,318
852.999939,326
853.117676,322
853.235535,319
853.353271,317
853.471069,323
853.588928,321
853.706604,315
853.824402,314
853.9422,309
854.059998,322
854.177734,296
854.295532,315
854.413269,311
854.531006,314
854.648804,314
854.766541,326
854.884277,312
855.002014,315
855.119751,300
855.237549,307
855.355225,313
855.473022,317
855.590698,319
855.708435,305
855.826172,310
855.943848,328
856.061646,295
856.179321,312
856.296997,315
856.414795,311
856.53241,321
856.650085,334
856.767822,311
856.885559,331
857.003174,305
857.120911,330
857.238586,315
857.356201,327
857.473938,313
857.591614,327
857.709351,312
857.826965,324
857.944641,310
858.062317,315
858.179993,307
858.297668,326
858.415283,311
858.532959,314
858.650574,321
858.768188,313
858.885803,321
859.003479,326
859.121094,318
859.23877,316
859.356384,316
859.473999,322
859.591675,327
859.709229,319
859.826843,303
859.944458,334
860.062012,309
860.179626,322
860.297302,314
860.414856,317
860.532471,334
860.650024,333
860.767639,307
860.885193,320
861.002808,320
861.120361,314
861.237976,319
861.35553,324
861.473022,320
861.590698,325
861.708191,319
861.825745,307
861.943298,308
862.060852,316
862.178406,305
862.295959,317
862.413513,327
862.531006,312
862.64856,300
862.766113,307
862.883667,314
863.00116,324
863.118713,299
863.236206,318
863.353699,311
863.471252,317
863.588745,313
863.706177,321
863.82373,315
863.941162,319
864.058716,318
864.176208,317
864.29364,306
864.411194,313
864.528687,316
864.646118,327
864.763611,313
864.881042,328
864.998535,314
865.116028,322
865.233459,327
865.350891,330
865.468384,321
865.585754,317
865.703308,329
865.820679,327
865.938171,323
866.055542,331
866.173035,303
866.290466,327
866.407837,311
866.52533,318
866.6427,306
866.760071,332
866.877563,319
866.994934,316
867.112305,314
867.229736,319
867.347107,309
867.464539,315
867.58197,312
867.699341,321
867.81665,313
867.934082,322
868.051453,309
868.168823,329
868.286194,314
868.403564,320
868.520935,325
868.638306,322
868.755676,318
868.872986,315
868.990295,318
869.107727,327
869.225037,310
869.342346,334
869.459717,316
869.577026,308
869.694336,333
869.811707,330
869.929016,321
870.046326,323
870.163635,312
870.280945,321
870.398254,309
870.515564,321
870.632812,318
870.750183,325
870.867432,313
870.984741,315
871.102051,326
871.219299,320
871.336609,322
871.453918,337
871.571106,314
871.688416,344
871.805664,324
871.922852,317
872.040222,311
872.157471,306
872.274719,330
872.391968,318
872.509155,310
872.626465,316
872.743652,318
872.860962,323
872.978149,322
873.095337,320
873.212646,312
873.329834,320
873.44696,309
873.564209,323
873.681396,303
873.798645,316
873.915894,313
874.03302,325
874.150208,327
874.267456,313
874.384583,318
874.501831,327
874.618958,312
874.736145,316
874.853333,318
874.970459,319
875.087646,312
875.204834,321
875.32196,322
875.439148,314
875.556274,311
875.673401,305
875.790527,314
875.907715,325
876.024841,322
876.141968,316
876.259094,308
876.376282,320
876.493347,329
876.610474,311
876.7276,321
876.844727,316
876.961853,315
877.078918,316
877.195984,299
877.313171,324
877.430237,310
877.547302,308
877.664368,314
877.781433,319
877.898499,317
878.015625,322
878.13269,327
878.249695,310
878.366821,325
878.483887,311
878.600952,311
878.717957,313
878.834961,326
878.952087,317
879.069092,319
879.186157,314
879.303162,316
879.420227,324
879.537231,302
879.654236,322
879.77124,300
879.888306,317
880.005249,325
880.122314,322
880.239319,321
880.356323,325
880.473328,316
880.590271,306
880.707275,316
880.824341,326
880.941284,304
881.058228,321
881.175232,309
881.292236,329
881.40918,313
881.526123,322
881.643066,320
881.760071,322
881.877014,316
881.993958,324
882.11084,304
882.227783,319
882.344727,315
882.46167,311
882.578613,299
882.695618,323
882.812439,334
882.929382,312
883.046326,306
883.163208,325
883.280151,313
883.397034,329
883.513916,314
883.630798,308
883.747742,313
883.864563,316
883.981506,309
884.098389,304
884.21521,311
884.332153,316
884.448975,325
884.565796,319
884.682678,311
884.7995,312
884.916443,320
885.033264,309
885.150085,317
885.266968,315
885.383789,306
885.500671,329
885.617493,314
885.734314,332
885.851196,316
885.967896,323
886.084717,340
886.201599,322
886.318359,315
886.435181,325
886.552002,305
886.668762,315
886.785645,329
886.902344,323
887.019165,312
887.135925,315
887.252747,322
887.369446,324
887.486267,328
887.603027,326
887.719788,311
887.836548,318
887.953247,314
888.070068,316
888.186829,316
888.303528,313
888.420288,311
888.536987,313
888.653687,326
888.770447,322
888.887146,308
889.003967,317
889.120667,319
889.237305,330
889.354065,319
889.470703,310
889.587463,317
889.704163,325
889.820862,320
889.937561,321
890.054199,308
890.170837,343
890.287598,301
890.404236,327
890.520874,325
890.637634,315
890.754211,322
890.87085,312
890.987549,323
891.104187,340
891.220886,318
891.337463,328
891.454102,314
891.57074,339
891.687378,309
891.804077,323
891.920654,313
892.037231,324
892.15387,325
892.270447,319
892.387085,314
892.503723,318
892.6203,312
892.736877,332
892.853516,322
892.970032,302
893.08667,322
893.203186,319
893.319763,298
893.43634,337
893.552917,303
893.669556,314
893.786011,310
893.902588,320
894.019165,313
894.135681,321
894.252197,315
894.368835,320
894.485291,324
894.601868,321
894.718384,295
894.8349,325
894.951355,315
895.067932,321
895.184448,316
895.300964,316
895.417419,310
895.533936,306
895.650452,322
895.766907,322
895.883423,307
895.999878,325
896.116333,327
896.232849,310
896.349304,323
896.465759,303
896.582214,324
896.698669,324
896.815125,321
896.931641,320
897.048035,312
897.164551,313
897.280884,330
897.397339,326
897.513794,322
897.630249,312
897.746582,310
897.863098,307
897.979431,321
898.095886,324
898.212341,319
898.328674,321
898.445129,302
898.561462,319
898.677795,309
898.794312,320
898.910645,304
899.026978,339
899.143433,313
899.259766,309
899.37616,331
899.492493,327
899.608765,320
899.725159,326
899.841553,320
899.957947,312
900.07428,319
900.190552,322
900.306946,314
900.423157,315
900.53949,320
900.655884,327
900.772156,317
900.888489,309
901.004822,317
901.121033,318
901.237366,317
901.353699,315
901.46991,330
901.586304,314
901.702515,304
901.818787,325
901.93512,311
902.051331,319
902.167603,322
902.283875,327
902.400085,314
902.516418,322
902.632629,326
902.74884,315
902.865112,315
902.981384,320
903.097595,318
903.213867,324
903.330017,317
903.446289,326
903.5625,323
903.67865,306
903.794922,324
903.911072,320
904.027344,314
904.143494,313
904.259705,315
904.375916,322
904.492065,319
904.608215,310
904.724426,318
904.840576,305
904.956726,314
905.072876,320
905.189087,304
905.305176,338
905.421387,311
905.537537,321
905.653687,311
905.769775,310
905.885925,323
906.002014,311
906.118164,326
906.234314,328
906.350403,314
906.466492,328
906.582642,316
906.69873,320
906.814758,310
906.930908,313
907.046936,325
907.163086,313
907.279175,323
907.395264,339
907.511353,318
907.62738,318
907.743408,327
907.859497,328
907.975525,308
908.091553,325
908.207703,317
908.32373,323
908.439758,314
908.555786,324
908.671814,320
908.787842,334
908.90387,309
909.019775,316
909.135864,321
909.251892,322
909.367859,303
909.483826,327
909.599854,316
909.715881,325
909.831848,304
909.947815,320
910.063782,331
910.179749,326
910.295776,313
910.411743,315
910.527649,330
910.643616,309
910.759583,315
910.875488,330
910.991455,312
911.107361,311
911.223267,321
911.339294,320
911.4552,308
911.571106,312
911.687073,320
911.802979,318
911.918823,314
912.034729,322
912.150635,321
912.266602,327
912.382446,323
912.498352,309
912.614197,324
912.730103,313
912.846008,318
792.44574,316
792.56488,359
792.68396,396
792.80304,388
792.92218,328
793.041199,329
793.160339,330
793.279419,339
793.398499,332
793.517578,336
793.636658,309
793.755737,327
793.874817,355
793.993896,352
794.112976,341
794.232056,336
794.351074,327
794.470215,325
794.589233,341
794.708313,314
794.827393,333
794.946411,336
795.065552,332
795.18457,328
795.303589,331
795.422668,332
795.541687,340
795.660767,338
795.779846,326
795.898865,336
796.017883,329
796.136963,324
796.255981,335
796.375061,336
796.49408,316
796.613037,338
796.732117,322
796.851135,330
796.970154,328
797.089233,330
797.208191,330
797.327271,316
797.446228,331
797.565186,321
797.684265,333
797.803223,334
797.922241,332
798.04126,334
798.160278,331
798.279297,316
798.398315,323
798.517273,320
798.636292,325
798.75531,323
798.874268,346
798.993286,340
799.112244,324
799.231323,331
799.350281,324
799.469238,337
799.588257,313
799.707153,337
799.826111,320
799.945129,323
800.064087,330
800.183044,323
800.302063,336
800.421021,327
800.539978,331
800.658936,327
800.777893,326
800.896912,330
801.015747,336
801.134705,330
801.253723,337
801.37262,328
801.491638,326
801.610535,322
801.729492,338
801.84845,339
801.967407,318
802.086243,331
802.205261,322
802.324158,339
802.443115,329
802.562073,326
802.680969,332
802.799927,319
802.918762,326
803.037659,327
803.156677,319
803.275574,324
803.39447,335
803.513428,325
803.632263,323
803.751221,328
803.870117,328
803.989014,330
804.107971,317
804.226746,332
804.345642,329
804.4646,331
804.583496,332
804.702393,325
804.821228,344
804.940125,328
805.059021,321
805.177917,333
805.296814,323
805.415649,333
805.534546,333
805.653442,343
805.772278,328
805.891113,336
806.01001,337
806.128906,317
806.247742,337
806.366577,325
806.485413,335
806.604309,335
806.723145,329
806.84198,331
806.960876,340
807.079712,336
807.198486,322
807.317383,325
807.436218,335
807.554993,320
807.673889,331
807.792725,338
807.91156,334
808.030396,328
808.14917,327
808.268005,335
808.386841,338
808.505676,336
808.624451,332
808.743286,333
808.862122,329
808.980896,335
809.099731,323
809.218506,320
809.337341,327
809.456116,327
809.57489,328
809.693726,332
809.8125,340
809.931274,347
810.050049,321
810.168884,328
810.287659,336
810.406372,337
810.525269,333
810.643982,321
810.762756,335
810.881531,329
811.000305,329
811.11908,334
811.237854,337
811.356567,346
811.475403,308
811.594116,333
811.71283,327
811.831604,331
811.950378,316
812.069153,340
812.187927,336
812.30658,317
812.425415,330
812.544128,330
812.662781,337
812.781616,327
812.900269,328
813.019043,333
813.137756,332
813.256531,320
813.375244,329
813.493896,337
813.612671,325
813.731384,335
813.850037,332
813.96875,328
814.087524,325
814.206238,333
814.324951,348
814.443604,316
814.562256,321
814.68103,337
814.799683,332
814.918335,334
815.037109,329
815.155762,328
815.274475,335
815.393188,333
815.511841,328
815.630554,327
815.749146,321
815.867859,306
815.986572,327
816.105164,324
816.223877,328
816.342529,333
816.461182,318
816.579895,328
816.698486,326
816.817139,336
816.935791,325
817.054504,315
817.173096,326
817.291748,340
817.4104,329
817.529053,339
817.647644,343
817.766235,326
817.884949,311
818.00354,336
818.122192,338
818.240845,333
818.359436,324
818.478088,331
818.59668,333
818.715271,342
818.833923,328
818.952515,313
819.071106,321
819.189758,318
819.30835,329
819.426941,328
819.545532,310
819.664124,315
819.782715,307
819.901306,321
820.019897,311
820.138489,320
820.25708,316
820.375671,324
820.494202,319
820.612732,318
820.731384,315
820.849915,320
820.968506,315
821.087097,305
821.205627,309
821.324158,321
821.442749,313
821.561279,306
821.679871,328
821.798401,319
821.916931,300
822.035461,316
822.154053,323
822.272583,325
822.391174,329
822.509583,318
822.628174,319
822.746704,309
822.865234,321
822.983765,321
823.102295,324
823.220825,323
823.339294,339
823.457825,317
823.576355,318
823.694824,301
823.813354,311
823.931885,308
824.050354,316
824.168884,316
824.287354,319
824.405823,323
824.524353,331
824.642822,324
824.761353,322
824.879822,328
824.998291,321
825.116699,315
825.235291,321
825.353699,315
825.472168,324
825.590637,323
825.709106,310
825.827576,302
825.946045,318
826.064453,317
826.182983,327
826.301392,315
826.4198,307
826.53833,331
826.656738,332
826.775208,316
826.893677,312
827.012024,319
827.130493,332
827.248962,320
827.36731,313
827.485779,302
827.604248,307
827.722595,320
827.841064,317
827.959412,307
828.077942,321
828.196289,325
828.314636,328
828.433105,323
828.551514,317
828.669861,324
828.78833,312
828.906677,324
829.025085,320
829.143433,314
829.261841,299
829.38031,322
829.498657,318
829.617004,317
829.735413,327
829.85376,316
829.972107,322
830.090515,312
830.208862,306
830.327209,317
830.445557,313
830.563904,329
830.682312,316
830.800659,318
830.919006,308
831.037354,321
831.155701,328
831.274048,322
831.392395,311
831.51062,322
831.629028,313
831.747314,320
831.865662,314
831.984009,314
832.102356,304
832.220642,323
832.338928,312
832.457275,310
832.575623,323
832.693909,311
832.812134,321
832.930481,316
833.048828,314
833.167114,318
833.2854,310
833.403687,313
833.521973,322
833.640259,312
833.758545,322
833.876831,321
833.995056,312
834.113281,311
834.231628,320
834.349915,309
834.468201,315
834.586426,321
834.704651,323
834.822998,325
834.941162,315
835.059448,311
835.177673,310
835.295959,310
835.414246,314
835.53241,320
835.650635,306
835.768921,323
835.887146,318
836.005371,319
836.123596,314
836.241821,321
836.360046,315
836.478271,311
836.596497,310
836.714722,329
836.832886,313
836.95105,313
837.069336,306
837.1875,320
837.305725,317
837.423889,316
837.542053,314
837.660339,319
837.778503,321
837.896667,318
838.014832,311
838.132996,321
838.25116,329
838.369385,333
838.487488,322
838.605713,327
838.723877,317
838.84198,328
838.960205,325
839.078308,321
839.196472,316
839.314636,311
839.4328,321
839.550964,319
839.669067,302
839.787231,316
839.905396,328
840.023499,326
840.141602,309
840.259766,307
840.377869,304
840.495972,320
840.614136,306
840.732239,308
840.850342,325
840.968445,301
841.086548,318
841.204651,315
841.322754,310
841.440918,308
841.55896,317
841.677002,304
841.795166,315
841.913208,325
842.031311,323
842.149353,325
842.267456,318
842.385498,318
842.503601,339
842.621643,325
842.739746,303
842.857788,315
842.97583,320
843.093933,323
843.211975,307
843.330017,325
843.44812,318
843.566101,308
843.684204,313
843.802246,301
843.920227,323
844.038269,317
844.156311,313
844.274292,326
844.392395,331
844.510376,306
844.628357,309
844.74646,328
844.864441,318
844.982422,313
845.100403,317
845.218384,308
845.336426,299
845.454468,317
845.572449,309
845.69043,323
845.808411,299
845.926453,324
846.044373,305
846.162354,311
846.280396,312
846.398315,324
846.516296,316
846.634216,320
846.752197,303
846.870178,320
846.988098,305
847.106079,323
847.22406,323
847.34198,310
847.4599,320
847.577881,324
847.695801,300
847.813782,316
847.931641,320
848.049561,318
848.167603,311
848.285461,315
848.403381,317
848.521362,325
848.639221,321
848.75708,332
848.875,327
848.99292,337
849.110901,295
849.22876,321
849.34668,326
849.464539,322
849.582458,311
849.700317,313
849.818176,318
849.936096,323
850.053955,321
850.171875,318
850.289673,309
850.407593,321
850.525452,304
850.643311,317
850.761169,320
850.878967,325
850.996887,316
851.114746,323
851.232544,326
851.350403,309
851.468262,316
851.58606,335
851.703979,309
851.821777,321
851.939636,314
852.057434,310
852.175232,322
852.293091,316
852.410889,316
852.528687,312
852.646545,315
852.764343,315
852.88208,318
852.999939,323
853.117676,318
853.235535,323
853.353271,327
853.471069,311
853.588928,327
853.706604,324
853.824402,310
853.9422,313
854.059998,318
854.177734,311
854.295532,318
854.413269,316
854.531006,324
854.648804,319
854.766541,309
854.884277,308
855.002014,326
855.119751,312
855.237549,307
855.355225,335
855.473022,320
855.590698,310
855.708435,318
855.826172,319
855.943848,313
856.061646,306
856.179321,326
856.296997,305
856.414795,320
856.53241,320
856.650085,321
856.767822,313
856.885559,311
857.003174,319
857.120911,322
857.238586,326
857.356201,319
857.473938,319
857.591614,315
857.709351,324
857.826965,309
857.944641,319
858.062317,311
858.179993,323
858.297668,311
858.415283,316
858.532959,326
858.650574,314
858.768188,325
858.885803,319
859.003479,326
859.121094,315
859.23877,316
859.356384,314
859.473999,323
859.591675,313
859.709229,331
859.826843,303
859.944458,332
860.062012,323
860.179626,315
860.297302,342
860.414856,321
860.532471,328
860.650024,301
860.767639,310
860.885193,311
861.002808,317
861.120361,316
861.237976,318
861.35553,321
861.473022,309
861.590698,332
861.708191,312
861.825745,319
861.943298,305
862.060852,304
862.178406,317
862.295959,316
862.413513,327
862.531006,315
862.64856,311
862.766113,331
862.883667,326
863.00116,311
863.118713,309
863.236206,307
863.353699,329
863.471252,321
863.588745,313
863.706177,312
863.82373,327
863.941162,312
864.058716,317
864.176208,316
864.29364,321
864.411194,309
864.528687,325
864.646118,315
864.763611,320
864.881042,321
864.998535,318
865.116028,308
865.233459,332
865.350891,320
865.468384,313
865.585754,318
865.703308,317
865.820679,304
865.938171,326
866.055542,308
866.173035,316
866.290466,304
866.407837,310
866.52533,320
866.6427,323
866.760071,315
866.877563,320
866.994934,334
867.112305,329
867.229736,308
867.347107,328
867.464539,321
867.58197,304
867.699341,308
867.81665,322
867.934082,307
868.051453,314
868.168823,319
868.286194,314
868.403564,313
868.520935,312
868.638306,323
868.755676,315
868.872986,310
868.990295,322
869.107727,302
869.225037,324
869.342346,303
869.459717,314
869.577026,331
869.694336,312
869.811707,325
869.929016,323
870.046326,319
870.163635,311
870.280945,312
870.398254,320
870.515564,314
870.632812,322
870.750183,325
870.867432,306
870.984741,304
871.102051,325
871.219299,325
871.336609,315
871.453918,314
871.571106,314
871.688416,319
871.805664,321
871.922852,311
872.040222,316
872.157471,315
872.274719,315
872.391968,320
872.509155,318
872.626465,321
872.743652,307
872.860962,317
872.978149,315
873.095337,325
873.212646,298
873.329834,317
873.44696,312
873.564209,323
873.681396,315
873.798645,316
873.915894,322
874.03302,315
874.150208,328
874.267456,306
874.384583,322
874.501831,317
874.618958,313
874.736145,316
874.853333,322
874.970459,316
875.087646,320
875.204834,316
875.32196,320
875.439148,313
875.556274,319
875.673401,323
875.790527,324
875.907715,305
876.024841,319
876.141968,317
876.259094,338
876.376282,307
876.493347,314
876.610474,322
876.7276,318
876.844727,312
876.961853,326
877.078918,331
877.195984,313
877.313171,320
877.430237,315
877.547302,317
877.664368,333
877.781433,309
877.898499,328
878.015625,311
878.13269,314
878.249695,319
878.366821,314
878.483887,304
878.600952,307
878.717957,304
878.834961,325
878.952087,312
879.069092,319
879.186157,317
879.303162,315
879.420227,301
879.537231,324
879.654236,311
879.77124,321
879.888306,292
880.005249,315
880.122314,322
880.239319,310
880.356323,313
880.473328,312
880.590271,333
880.707275,318
880.824341,320
880.941284,326
881.058228,322
881.175232,314
881.292236,319
881.40918,314
881.526123,319
881.643066,327
881.760071,310
881.877014,319
881.993958,324
882.11084,311
882.227783,312
882.344727,326
882.46167,317
882.578613,327
882.695618,308
882.812439,312
882.929382,321
883.046326,324
883.163208,308
883.280151,325
883.397034,314
883.513916,329
883.630798,307
883.747742,315
883.864563,325
883.981506,309
884.098389,310
884.21521,307
884.332153,315
884.448975,328
884.565796,309
884.682678,320
884.7995,320
884.916443,311
885.033264,322
885.150085,307
885.266968,321
885.383789,327
885.500671,309
885.617493,319
885.734314,321
885.851196,320
885.967896,319
886.084717,312
886.201599,319
886.318359,329
886.435181,312
886.552002,330
886.668762,312
886.785645,306
886.902344,303
887.019165,325
887.135925,323
887.252747,320
887.369446,314
887.486267,315
887.603027,318
887.719788,311
887.836548,323
887.953247,317
888.070068,314
888.186829,310
888.303528,312
888.420288,320
888.536987,313
888.653687,323
888.770447,313
888.887146,326
889.003967,309
889.120667,322
889.237305,307
889.354065,323
889.470703,321
889.587463,311
889.704163,330
889.820862,310
889.937561,315
890.054199,315
890.170837,318
890.287598,330
890.404236,316
890.520874,316
890.637634,303
890.754211,314
890.87085,324
890.987549,321
891.104187,320
891.220886,334
891.337463,321
891.454102,323
891.57074,316
891.687378,319
891.804077,303
891.920654,306
892.037231,323
892.15387,319
892.270447,327
892.387085,319
892.503723,312
892.6203,325
892.736877,307
892.853516,310
892.970032,310
893.08667,316
893.203186,314
893.319763,323
893.43634,313
893.552917,319
893.669556,310
893.786011,331
893.902588,320
894.019165,316
894.135681,321
894.252197,310
894.368835,321
894.485291,320
894.601868,313
894.718384,329
894.8349,328
894.951355,335
895.067932,315
895.184448,305
895.300964,308
895.417419,296
895.533936,306
895.650452,303
895.766907,319
895.883423,322
895.999878,307
896.116333,305
896.232849,320
896.349304,318
896.465759,308
896.582214,321
896.698669,319
896.815125,314
896.931641,315
897.048035,323
897.164551,294
897.280884,323
897.397339,316
897.513794,316
897.630249,319
897.746582,328
897.863098,323
897.979431,317
898.095886,309
898.212341,310
898.328674,318
898.445129,326
898.561462,307
898.677795,325
898.794312,307
898.910645,318
899.026978,306
899.143433,324
899.259766,323
899.37616,321
899.492493,307
899.608765,312
899.725159,312
899.841553,317
899.957947,319
900.07428,302
900.190552,329
900.306946,310
900.423157,322
900.53949,320
900.655884,324
900.772156,312
900.888489,312
901.004822,326
901.121033,306
901.237366,325
901.353699,316
901.46991,315
901.586304,323
901.702515,310
901.818787,299
901.93512,314
902.051331,317
902.167603,325
902.283875,304
902.400085,332
902.516418,314
902.632629,317
902.74884,328
902.865112,327
902.981384,315
903.097595,318
903.213867,311
903.330017,314
903.446289,310
903.5625,297
903.67865,323
903.794922,321
903.911072,317
904.027344,326
904.143494,315
904.259705,314
904.375916,318
904.492065,314
904.608215,311
904.724426,314
904.840576,324
904.956726,322
905.072876,328
905.189087,333
905.305176,310
905.421387,318
905.537537,308
905.653687,326
905.769775,316
905.885925,312
906.002014,319
906.118164,318
906.234314,323
906.350403,313
906.466492,323
906.582642,325
906.69873,315
906.814758,316
906.930908,311
907.046936,314
907.163086,314
907.279175,309
907.395264,326
907.511353,321
907.62738,322
907.743408,314
907.859497,309
907.975525,320
908.091553,305
908.207703,314
908.32373,314
908.439758,314
908.555786,319
908.671814,324
908.787842,317
908.90387,305
909.019775,316
909.135864,328
909.251892,329
909.367859,319
909.483826,327
909.599854,327
909.715881,315
909.831848,322
909.947815,308
910.063782,323
910.179749,307
910.295776,319
910.411743,308
910.527649,313
910.643616,324
910.759583,321
910.875488,311
910.991455,327
911.107361,305
911.223267,321
911.339294,316
911.4552,327
911.571106,317
911.687073,309
911.802979,330
911.918823,317
912.034729,309
912.150635,316
912.266602,321
912.382446,313
912.498352,324
912.614197,326
912.730103,320
912.846008,314
792.44574,310
792.56488,344
792.68396,407
792.80304,387
792.92218,340
793.041199,334
793.160339,317
793.279419,330
793.398499,330
793.517578,329
793.636658,322
793.755737,351
793.874817,358
793.993896,365
794.112976,330
794.232056,344
794.351074,322
794.470215,327
794.589233,332
794.708313,328
794.827393,341
794.946411,335
795.065552,337
795.18457,343
795.303589,330
795.422668,329
795.541687,333
795.660767,336
795.779846,348
795.898865,336
796.017883,337
796.136963,336
796.255981,345
796.375061,326
796.49408,347
796.613037,337
796.732117,342
796.851135,344
796.970154,329
797.089233,324
797.208191,335
797.327271,326
797.446228,343
797.565186,343
797.684265,340
797.803223,318
797.922241,325
798.04126,326
798.160278,334
798.279297,321
798.398315,333
798.517273,334
798.636292,333
798.75531,326
798.874268,321
798.993286,327
799.112244,329
799.231323,323
799.350281,314
799.469238,322
799.588257,336
799.707153,321
799.826111,344
799.945129,324
800.064087,327
800.183044,333
800.302063,331
800.421021,318
800.539978,333
800.658936,335
800.777893,330
800.896912,327
801.015747,329
801.134705,326
801.253723,329
801.37262,329
801.491638,322
801.610535,327
801.729492,342
801.84845,319
801.967407,333
802.086243,334
802.205261,333
802.324158,336
802.443115,329
802.562073,318
802.680969,316
802.799927,331
802.918762,331
803.037659,327
803.156677,316
803.275574,331
803.39447,330
803.513428,341
803.632263,331
803.751221,333
803.870117,325
803.989014,321
804.107971,333
804.226746,320
804.345642,337
804.4646,339
804.583496,320
804.702393,336
804.821228,334
804.940125,344
805.059021,332
805.177917,325
805.296814,326
805.415649,332
805.534546,325
805.653442,325
805.772278,349
805.891113,333
806.01001,336
806.128906,347
806.247742,331
806.366577,334
806.485413,331
806.604309,331
806.723145,323
806.84198,336
806.960876,329
807.079712,343
807.198486,328
807.317383,335
807.436218,323
807.554993,334
807.673889,345
807.792725,335
807.91156,317
808.030396,344
808.14917,332
808.268005,331
808.386841,322
808.505676,330
808.624451,336
808.743286,319
808.862122,334
808.980896,329
809.099731,342
809.218506,327
809.337341,334
809.456116,326
809.57489,339
809.693726,333
809.8125,324
809.931274,329
810.050049,338
810.168884,322
810.287659,333
810.406372,334
810.525269,337
810.643982,325
810.762756,335
810.881531,341
811.000305,325
811.11908,337
811.237854,339
811.356567,327
811.475403,326
811.594116,338
811.71283,331
811.831604,343
811.950378,335
812.069153,327
812.187927,326
812.30658,346
812.425415,335
812.544128,313
812.662781,341
812.781616,321
812.900269,337
813.019043,328
813.137756,339
813.256531,333
813.375244,334
813.493896,342
813.612671,327
813.731384,331
813.850037,334
813.96875,324
814.087524,327
814.206238,330
814.324951,329
814.443604,335
814.562256,320
814.68103,317
814.799683,326
814.918335,330
815.037109,325
815.155762,338
815.274475,340
815.393188,327
815.511841,325
815.630554,336
815.749146,327
815.867859,329
815.986572,343
816.105164,328
816.223877,322
816.342529,332
816.461182,329
816.579895,335
816.698486,330
816.817139,330
816.935791,325
817.054504,326
817.173096,348
817.291748,333
817.4104,315
817.529053,339
817.647644,330
817.766235,348
817.884949,327
818.00354,318
818.122192,317
818.240845,332
818.359436,316
818.478088,321
818.59668,322
818.715271,305
818.833923,326
818.952515,315
819.071106,313
819.189758,306
819.30835,326
819.426941,324
819.545532,330
819.664124,331
819.782715,314
819.901306,315
820.019897,316
820.138489,337
820.25708,314
820.375671,320
820.494202,313
820.612732,317
820.731384,313
820.849915,315
820.968506,317
821.087097,324
821.205627,329
821.324158,319
821.442749,316
821.561279,332
821.679871,318
821.798401,321
821.916931,315
822.035461,319
822.154053,314
822.272583,330
822.391174,313
822.509583,313
822.628174,315
822.746704,319
822.865234,318
822.983765,326
823.102295,327
823.220825,336
823.339294,317
823.457825,322
823.576355,323
823.694824,320
823.813354,312
823.931885,322
824.050354,309
824.168884,334
824.287354,322
824.405823,311
824.524353,324
824.642822,311
824.761353,322
824.879822,320
824.998291,320
825.116699,321
825.235291,327
825.353699,322
825.472168,314
825.590637,337
825.709106,326
825.827576,313
825.946045,329
826.064453,332
826.182983,328
826.301392,323
826.4198,310
826.53833,309
826.656738,326
826.775208,313
826.893677,323
827.012024,320
827.130493,306
827.248962,324
827.36731,325
827.485779,326
827.604248,317
827.722595,331
827.841064,312
827.959412,327
828.077942,325
828.196289,324
828.314636,323
828.433105,305
828.551514,308
828.669861,320
828.78833,303
828.906677,324
829.025085,306
829.143433,316
829.261841,324
829.38031,317
829.498657,316
829.617004,318
829.735413,318
829.85376,326
829.972107,311
830.090515,329
830.208862,309
830.327209,330
830.445557,311
830.563904,319
830.682312,323
830.800659,320
830.919006,329
831.037354,314
831.155701,314
831.274048,312
831.392395,311
831.51062,323
831.629028,310
831.747314,320
831.865662,314
831.984009,332
832.102356,311
832.220642,331
832.338928,325
832.457275,320
832.575623,313
832.693909,315
832.812134,315
832.930481,314
833.048828,324
833.167114,313
833.2854,327
833.403687,320
833.521973,311
833.640259,320
833.758545,310
833.876831,311
833.995056,311
834.113281,315
834.231628,317
834.349915,315
834.468201,320
834.586426,318
834.704651,310
834.822998,328
834.941162,313
835.059448,326
835.177673,323
835.295959,332
835.414246,321
835.53241,311
835.650635,315
835.768921,311
835.887146,318
836.005371,318
836.123596,316
836.241821,310
836.360046,316
836.478271,321
836.596497,317
836.714722,326
836.832886,321
836.95105,312
837.069336,315
837.1875,318
837.305725,324
837.423889,320
837.542053,324
837.660339,331
837.778503,314
837.896667,320
838.014832,329
838.132996,319
838.25116,302
838.369385,317
838.487488,314
838.605713,316
838.723877,318
838.84198,322
838.960205,321
839.078308,326
839.196472,320
839.314636,325
839.4328,311
839.550964,337
839.669067,316
839.787231,310
839.905396,321
840.023499,306
840.141602,319
840.259766,326
840.377869,318
840.495972,318
840.614136,311
840.732239,317
840.850342,313
840.968445,324
841.086548,318
841.204651,322
841.322754,322
841.440918,321
841.55896,308
841.677002,312
841.795166,312
841.913208,335
842.031311,320
842.149353,331
842.267456,318
842.385498,311
842.503601,319
842.621643,313
842.739746,309
842.857788,321
842.97583,317
843.093933,317
843.211975,322
843.330017,318
843.44812,312
843.566101,320
843.684204,316
843.802246,309
843.920227,309
844.038269,319
844.156311,322
844.274292,317
844.392395,310
844.510376,312
844.628357,323
844.74646,321
844.864441,317
844.982422,325
845.100403,320
845.218384,320
845.336426,326
845.454468,311
845.572449,320
845.69043,317
845.808411,327
845.926453,326
846.044373,334
846.162354,325
846.280396,318
846.398315,320
846.516296,326
846.634216,314
846.752197,321
846.870178,317
846.988098,314
847.106079,317
847.22406,315
847.34198,310
847.4599,333
847.577881,309
847.695801,310
847.813782,331
847.931641,311
848.049561,309
848.167603,315
848.285461,322
848.403381,313
848.521362,313
848.639221,310
848.75708,323
848.875,318
848.99292,317
849.110901,304
849.22876,318
849.34668,315
849.464539,316
849.582458,329
849.700317,316
849.818176,308
849.936096,322
850.053955,311
850.171875,307
850.289673,313
850.407593,325
850.525452,315
850.643311,320
850.761169,327
850.878967,324
850.996887,310
851.114746,327
851.232544,313
851.350403,323
851.468262,321
851.58606,309
851.703979,317
851.821777,322
851.939636,310
852.057434,320
852.175232,319
852.293091,322
852.410889,317
852.528687,310
852.646545,321
852.764343,323
852.88208,314
852.999939,334
853.117676,322
853.235535,328
853.353271,305
853.471069,316
853.588928,320
853.706604,317
853.824402,317
853.9422,312
854.059998,330
854.177734,326
854.295532,318
854.413269,312
854.531006,327
854.648804,320
854.766541,313
854.884277,322
855.002014,315
855.119751,316
855.237549,316
855.355225,328
855.473022,314
855.590698,323
855.708435,301
855.826172,317
855.943848,316
856.061646,332
856.179321,307
856.296997,310
856.414795,310
856.53241,319
856.650085,321
856.767822,321
856.885559,297
857.003174,309
857.120911,304
857.238586,321
857.356201,321
857.473938,322
857.591614,304
857.709351,327
857.826965,319
857.944641,322
858.062317,320
858.179993,311
858.297668,328
858.415283,327
858.532959,319
858.650574,322
858.768188,315
858.885803,322
859.003479,318
859.121094,311
859.23877,314
859.356384,320
859.473999,311
859.591675,311
859.709229,319
859.826843,311
859.944458,326
860.062012,318
860.179626,323
860.297302,325
860.414856,314
860.532471,316
860.650024,304
860.767639,324
860.885193,319
861.002808,306
861.120361,313
861.237976,309
861.35553,323
861.473022,326
861.590698,310
861.708191,319
861.825745,302
861.943298,315
862.060852,315
862.178406,309
862.295959,324
862.413513,319
862.531006,330
862.64856,313
862.766113,313
862.883667,309
863.00116,316
863.118713,324
863.236206,310
863.353699,309
863.471252,323
863.588745,319
863.706177,309
863.82373,313
863.941162,316
864.058716,313
864.176208,305
864.29364,317
864.411194,317
864.528687,307
864.646118,333
864.763611,311
864.881042,318
864.998535,309
865.116028,320
865.233459,324
865.350891,323
865.468384,318
865.585754,312
865.703308,325
865.820679,314
865.938171,321
866.055542,321
866.173035,315
866.290466,305
866.407837,317
866.52533,321
866.6427,324
866.760071,313
866.877563,304
866.994934,316
867.112305,315
867.229736,323
867.347107,318
867.464539,322
867.58197,322
867.699341,319
867.81665,320
867.934082,328
868.051453,314
868.168823,318
868.286194,303
868.403564,323
868.520935,325
868.638306,308
868.755676,319
868.872986,309
868.990295,323
869.107727,312
869.225037,318
869.342346,318
869.459717,316
869.577026,301
869.694336,334
869.811707,294
869.929016,329
870.046326,318
870.163635,311
870.280945,309
870.398254,325
870.515564,319
870.632812,313
870.750183,334
870.867432,307
870.984741,307
871.102051,315
871.219299,309
871.336609,325
871.453918,313
871.571106,307
871.688416,324
871.805664,327
871.922852,329
872.040222,317
872.157471,319
872.274719,325
872.391968,314
872.509155,313
872.626465,324
872.743652,331
872.860962,330
872.978149,318
873.095337,328
873.212646,313
873.329834,322
873.44696,327
873.564209,304
873.681396,316
873.798645,317
873.915894,315
874.03302,322
874.150208,324
874.267456,313
874.384583,323
874.501831,320
874.618958,306
874.736145,311
874.853333,309
874.970459,305
875.087646,316
875.204834,325
875.32196,319
875.439148,342
875.556274,314
875.673401,311
875.790527,310
875.907715,307
876.024841,336
876.141968,320
876.259094,321
876.376282,310
876.493347,323
876.610474,323
876.7276,314
876.844727,323
876.961853,308
877.078918,318
877.195984,312
877.313171,327
877.430237,323
877.547302,322
877.664368,332
877.781433,316
877.898499,325
878.015625,311
878.13269,319
878.249695,316
878.366821,311
878.483887,323
878.600952,323
878.717957,316
878.834961,321
878.952087,307
879.069092,336
879.186157,305
879.303162,317
879.420227,326
879.537231,319
879.654236,302
879.77124,330
879.888306,312
880.005249,321
880.122314,329
880.239319,328
880.356323,318
880.473328,315
880.590271,324
880.707275,317
880.824341,316
880.941284,325
881.058228,315
881.175232,316
881.292236,320
881.40918,310
881.526123,307
881.643066,324
881.760071,321
881.877014,332
881.993958,316
882.11084,306
882.227783,322
882.344727,315
882.46167,336
882.578613,315
882.695618,315
882.812439,327
882.929382,315
883.046326,322
883.163208,323
883.280151,312
883.397034,328
883.513916,319
883.630798,312
883.747742,313
883.864563,319
883.981506,321
884.098389,318
884.21521,325
884.332153,326
884.448975,311
884.565796,317
884.682678,317
884.7995,310
884.916443,339
885.033264,307
885.150085,329
885.266968,313
885.383789,325
885.500671,321
885.617493,316
885.734314,314
885.851196,318
885.967896,326
886.084717,303
886.201599,329
886.318359,321
886.435181,328
886.552002,315
886.668762,312
886.785645,314
886.902344,321
887.019165,325
887.135925,319
887.252747,323
887.369446,312
887.486267,320
887.603027,303
887.719788,325
887.836548,316
887.953247,310
888.070068,318
888.186829,320
888.303528,322
888.420288,311
888.536987,316
888.653687,332
888.770447,313
888.887146,317
889.003967,314
889.120667,316
889.237305,324
889.354065,319
889.470703,322
889.587463,321
889.704163,323
889.820862,321
889.937561,306
890.054199,314
890.170837,316
890.287598,321
890.404236,320
890.520874,311
890.637634,331
890.754211,313
890.87085,305
890.987549,307
891.104187,318
891.220886,322
891.337463,314
891.454102,310
891.57074,318
891.687378,317
891.804077,326
891.920654,302
892.037231,328
892.15387,318
892.270447,317
892.387085,320
892.503723,322
892.6203,314
892.736877,334
892.853516,313
892.970032,311
893.08667,309
893.203186,322
893.319763,309
893.43634,303
893.552917,317
893.669556,318
893.786011,314
893.902588,317
894.019165,338
894.135681,310
894.252197,321
894.368835,312
894.485291,324
894.601868,318
894.718384,317
894.8349,338
894.951355,331
895.067932,316
895.184448,322
895.300964,314
895.417419,312
895.533936,321
895.650452,317
895.766907,330
895.883423,320
895.999878,313
896.116333,323
896.232849,322
896.349304,319
896.465759,312
896.582214,320
896.698669,311
896.815125,332
896.931641,302
897.048035,325
897.164551,298
897.280884,310
897.397339,318
897.513794,322
897.630249,310
897.746582,319
897.863098,315
897.979431,336
898.095886,305
898.212341,327
898.328674,322
898.445129,312
898.561462,312
898.677795,317
898.794312,321
898.910645,324
899.026978,330
899.143433,328
899.259766,324
899.37616,331
899.492493,313
899.608765,313
899.725159,318
899.841553,309
899.957947,312
900.07428,319
900.190552,315
900.306946,330
900.423157,322
900.53949,328
900.655884,320
900.772156,309
900.888489,331
901.004822,305
901.121033,339
901.237366,310
901.353699,309
901.46991,322
901.586304,310
901.702515,313
901.818787,310
901.93512,311
902.051331,303
902.167603,318
902.283875,322
902.400085,322
902.516418,326
902.632629,318
902.74884,315
902.865112,320
902.981384,316
903.097595,322
903.213867,331
903.330017,310
903.446289,317
903.5625,313
903.67865,322
903.794922,320
903.911072,322
904.027344,317
904.143494,306
904.259705,328
904.375916,322
904.492065,317
904.608215,324
904.724426,334
904.840576,307
904.956726,320
905.072876,319
905.189087,331
905.305176,340
905.421387,316
905.537537,322
905.653687,325
905.769775,327
905.885925,317
906.002014,300
906.118164,324
906.234314,316
906.350403,325
906.466492,318
906.582642,319
906.69873,319
906.814758,311
906.930908,310
907.046936,323
907.163086,311
907.279175,325
907.395264,326
907.511353,324
907.62738,321
907.743408,329
907.859497,326
907.975525,332
908.091553,326
908.207703,322
908.32373,319
908.439758,326
908.555786,312
908.671814,318
908.787842,326
908.90387,324
909.019775,319
909.135864,322
909.251892,304
909.367859,320
909.483826,302
909.599854,312
909.715881,321
909.831848,329
909.947815,303
910.063782,323
910.179749,325
910.295776,317
910.411743,314
910.527649,313
910.643616,320
910.759583,320
910.875488,319
910.991455,320
911.107361,325
911.223267,304
911.339294,328
911.4552,319
911.571106,313
911.687073,326
911.802979,323
911.918823,327
912.034729,314
912.150635,324
912.266602,317
912.382446,318
912.498352,321
912.614197,310
912.730103,307
912.846008,318
