792.44574,302
792.56488,342
792.68396,399
792.80304,382
792.92218,320
793.041199,315
793.160339,330
793.279419,325
793.398499,327
793.517578,296
793.636658,314
793.755737,331
793.874817,344
793.993896,338
794.112976,321
794.232056,316
794.351074,317
794.470215,321
794.589233,323
794.708313,320
794.827393,312
794.946411,318
795.065552,328
795.18457,332
795.303589,327
795.422668,322
795.541687,320
795.660767,321
795.779846,322
795.898865,325
796.017883,319
796.136963,326
796.255981,321
796.375061,329
796.49408,319
796.613037,321
796.732117,317
796.851135,314
796.970154,320
797.089233,316
797.208191,318
797.327271,313
797.446228,323
797.565186,322
797.684265,316
797.803223,333
797.922241,323
798.04126,333
798.160278,315
798.279297,326
798.398315,331
798.517273,318
798.636292,319
798.75531,323
798.874268,318
798.993286,324
799.112244,319
799.231323,317
799.350281,314
799.469238,310
799.588257,322
799.707153,316
799.826111,327
799.945129,314
800.064087,315
800.183044,329
800.302063,322
800.421021,315
800.539978,328
800.658936,320
800.777893,322
800.896912,324
801.015747,332
801.134705,318
801.253723,308
801.37262,332
801.491638,316
801.610535,312
801.729492,313
801.84845,302
801.967407,317
802.086243,323
802.205261,324
802.324158,323
802.443115,311
802.562073,338
802.680969,322
802.799927,328
802.918762,311
803.037659,316
803.156677,327
803.275574,321
803.39447,325
803.513428,307
803.632263,315
803.751221,318
803.870117,318
803.989014,309
804.107971,332
804.226746,307
804.345642,329
804.4646,308
804.583496,330
804.702393,317
804.821228,319
804.940125,323
805.059021,325
805.177917,309
805.296814,317
805.415649,312
805.534546,317
805.653442,318
805.772278,319
805.891113,325
806.01001,326
806.128906,326
806.247742,315
806.366577,319
806.485413,322
806.604309,326
806.723145,305
806.84198,323
806.960876,318
807.079712,333
807.198486,313
807.317383,315
807.436218,323
807.554993,334
807.673889,318
807.792725,325
807.91156,324
808.030396,324
808.14917,316
808.268005,308
808.386841,317
808.505676,313
808.624451,331
808.743286,316
808.862122,326
808.980896,320
809.099731,308
809.218506,302
809.337341,321
809.456116,333
809.57489,315
809.693726,301
809.8125,308
809.931274,303
810.050049,316
810.168884,319
810.287659,310
810.406372,296
810.525269,327
810.643982,307
810.762756,316
810.881531,327
811.000305,321
811.11908,324
811.237854,319
811.356567,316
811.475403,312
811.594116,317
811.71283,316
811.831604,316
811.950378,315
812.069153,304
812.187927,310
812.30658,321
812.425415,316
812.544128,318
812.662781,328
812.781616,316
812.900269,309
813.019043,311
813.137756,319
813.256531,323
813.375244,330
813.493896,321
813.612671,321
813.731384,305
813.850037,314
813.96875,305
814.087524,327
814.206238,316
814.324951,319
814.443604,319
814.562256,322
814.68103,321
814.799683,331
814.918335,311
815.037109,326
815.155762,316
815.274475,322
815.393188,328
815.511841,302
815.630554,316
815.749146,317
815.867859,326
815.986572,324
816.105164,302
816.223877,326
816.342529,314
816.461182,315
816.579895,314
816.698486,329
816.817139,314
816.935791,331
817.054504,320
817.173096,312
817.291748,319
817.4104,313
817.529053,321
817.647644,323
817.766235,311
817.884949,316
818.00354,327
818.122192,321
818.240845,322
818.359436,329
818.478088,311
818.59668,317
818.715271,317
818.833923,316
818.952515,313
819.071106,304
819.189758,324
819.30835,316
819.426941,324
819.545532,321
819.664124,310
819.782715,317
819.901306,327
820.019897,324
820.138489,319
820.25708,321
820.375671,331
820.494202,313
820.612732,302
820.731384,301
820.849915,326
820.968506,315
821.087097,305
821.205627,320
821.324158,311
821.442749,316
821.561279,316
821.679871,319
821.798401,317
821.916931,316
822.035461,316
822.154053,310
822.272583,321
822.391174,324
822.509583,322
822.628174,313
822.746704,317
822.865234,316
822.983765,336
823.102295,324
823.220825,306
823.339294,313
823.457825,312
823.576355,318
823.694824,302
823.813354,318
823.931885,311
824.050354,314
824.168884,306
824.287354,313
824.405823,316
824.524353,324
824.642822,304
824.761353,313
824.879822,324
824.998291,323
825.116699,314
825.235291,317
825.353699,327
825.472168,333
825.590637,302
825.709106,325
825.827576,311
825.946045,317
826.064453,305
826.182983,335
826.301392,311
826.4198,311
826.53833,306
826.656738,319
826.775208,320
826.893677,306
827.012024,315
827.130493,310
827.248962,310
827.36731,307
827.485779,307
827.604248,322
827.722595,313
827.841064,331
827.959412,311
828.077942,320
828.196289,302
828.314636,326
828.433105,309
828.551514,315
828.669861,310
828.78833,316
828.906677,312
829.025085,310
829.143433,312
829.261841,309
829.38031,317
829.498657,324
829.617004,290
829.735413,317
829.85376,318
829.972107,312
830.090515,332
830.208862,313
830.327209,322
830.445557,317
830.563904,310
830.682312,312
830.800659,322
830.919006,317
831.037354,309
831.155701,325
831.274048,315
831.392395,316
831.51062,316
831.629028,323
831.747314,303
831.865662,323
831.984009,323
832.102356,314
832.220642,324
832.338928,306
832.457275,303
832.575623,312
832.693909,304
832.812134,322
832.930481,312
833.048828,317
833.167114,315
833.2854,324
833.403687,312
833.521973,312
833.640259,304
833.758545,320
833.876831,314
833.995056,309
834.113281,325
834.231628,313
834.349915,310
834.468201,311
834.586426,321
834.704651,311
834.822998,314
834.941162,310
835.059448,312
835.177673,328
835.295959,315
835.414246,313
835.53241,313
835.650635,312
835.768921,317
835.887146,317
836.005371,317
836.123596,306
836.241821,314
836.360046,323
836.478271,318
836.596497,313
836.714722,323
836.832886,310
836.95105,321
837.069336,319
837.1875,314
837.305725,308
837.423889,315
837.542053,327
837.660339,304
837.778503,324
837.896667,319
838.014832,325
838.132996,318
838.25116,315
838.369385,312
838.487488,325
838.605713,302
838.723877,330
838.84198,310
838.960205,315
839.078308,326
839.196472,324
839.314636,308
839.4328,318
839.550964,321
839.669067,333
839.787231,298
839.905396,316
840.023499,305
840.141602,321
840.259766,319
840.377869,324
840.495972,318
840.614136,313
840.732239,304
840.850342,306
840.968445,311
841.086548,313
841.204651,314
841.322754,324
841.440918,319
841.55896,320
841.677002,309
841.795166,318
841.913208,322
842.031311,314
842.149353,304
842.267456,314
842.385498,314
842.503601,322
842.621643,315
842.739746,309
842.857788,312
842.97583,304
843.093933,297
843.211975,316
843.330017,312
843.44812,319
843.566101,316
843.684204,317
843.802246,306
843.920227,322
844.038269,308
844.156311,329
844.274292,309
844.392395,309
844.510376,317
844.628357,326
844.74646,307
844.864441,316
844.982422,317
845.100403,319
845.218384,301
845.336426,315
845.454468,304
845.572449,305
845.69043,317
845.808411,323
845.926453,317
846.044373,316
846.162354,318
846.280396,323
846.398315,316
846.516296,326
846.634216,311
846.752197,319
846.870178,313
846.988098,320
847.106079,321
847.22406,309
847.34198,311
847.4599,310
847.577881,325
847.695801,319
847.813782,315
847.931641,315
848.049561,305
848.167603,308
848.285461,300
848.403381,330
848.521362,316
848.639221,329
848.75708,311
848.875,314
848.99292,309
849.110901,322
849.22876,311
849.34668,320
849.464539,300
849.582458,307
849.700317,320
849.818176,320
849.936096,303
850.053955,311
850.171875,321
850.289673,329
850.407593,304
850.525452,314
850.643311,313
850.761169,315
850.878967,323
850.996887,326
851.114746,312
851.232544,316
851.350403,313
851.468262,306
851.58606,316
851.703979,309
851.821777,298
851.939636,329
852.057434,315
852.175232,327
852.293091,302
852.410889,316
852.528687,312
852.646545,312
852.764343,305
852.88208,311
852.999939,310
853.117676,317
853.235535,314
853.353271,314
853.471069,324
853.588928,310
853.706604,325
853.824402,308
853.9422,317
854.059998,315
854.177734,305
854.295532,316
854.413269,322
854.531006,318
854.648804,311
854.766541,303
854.884277,312
855.002014,312
855.119751,322
855.237549,320
855.355225,315
855.473022,307
855.590698,318
855.708435,309
855.826172,312
855.943848,322
856.061646,313
856.179321,316
856.296997,314
856.414795,309
856.53241,316
856.650085,322
856.767822,310
856.885559,316
857.003174,303
857.120911,317
857.238586,325
857.356201,321
857.473938,312
857.591614,317
857.709351,317
857.826965,318
857.944641,315
858.062317,312
858.179993,310
858.297668,332
858.415283,301
858.532959,325
858.650574,302
858.768188,316
858.885803,311
859.003479,314
859.121094,308
859.23877,319
859.356384,322
859.473999,320
859.591675,329
859.709229,316
859.826843,313
859.944458,319
860.062012,307
860.179626,321
860.297302,312
860.414856,304
860.532471,304
860.650024,313
860.767639,309
860.885193,320
861.002808,299
861.120361,314
861.237976,311
861.35553,334
861.473022,314
861.590698,322
861.708191,308
861.825745,312
861.943298,311
862.060852,325
862.178406,307
862.295959,306
862.413513,295
862.531006,320
862.64856,315
862.766113,324
862.883667,315
863.00116,328
863.118713,310
863.236206,320
863.353699,314
863.471252,318
863.588745,302
863.706177,316
863.82373,307
863.941162,328
864.058716,308
864.176208,316
864.29364,300
864.411194,304
864.528687,317
864.646118,323
864.763611,301
864.881042,322
864.998535,323
865.116028,307
865.233459,298
865.350891,326
865.468384,303
865.585754,315
865.703308,313
865.820679,314
865.938171,307
866.055542,310
866.173035,316
866.290466,313
866.407837,304
866.52533,321
866.6427,314
866.760071,304
866.877563,311
866.994934,315
867.112305,299
867.229736,323
867.347107,311
867.464539,321
867.58197,310
867.699341,298
867.81665,318
867.934082,314
868.051453,306
868.168823,316
868.286194,327
868.403564,324
868.520935,304
868.638306,318
868.755676,317
868.872986,317
868.990295,311
869.107727,309
869.225037,320
869.342346,326
869.459717,315
869.577026,319
869.694336,304
869.811707,306
869.929016,315
870.046326,301
870.163635,306
870.280945,315
870.398254,313
870.515564,323
870.632812,313
870.750183,318
870.867432,319
870.984741,321
871.102051,303
871.219299,307
871.336609,304
871.453918,322
871.571106,317
871.688416,317
871.805664,324
871.922852,326
872.040222,317
872.157471,325
872.274719,313
872.391968,315
872.509155,320
872.626465,313
872.743652,318
872.860962,321
872.978149,298
873.095337,328
873.212646,305
873.329834,324
873.44696,313
873.564209,315
873.681396,317
873.798645,314
873.915894,297
874.03302,313
874.150208,315
874.267456,321
874.384583,320
874.501831,316
874.618958,306
874.736145,324
874.853333,309
874.970459,315
875.087646,316
875.204834,314
875.32196,300
875.439148,312
875.556274,313
875.673401,317
875.790527,314
875.907715,312
876.024841,321
876.141968,316
876.259094,307
876.376282,311
876.493347,302
876.610474,316
876.7276,319
876.844727,301
876.961853,315
877.078918,320
877.195984,320
877.313171,317
877.430237,302
877.547302,300
877.664368,310
877.781433,314
877.898499,308
878.015625,318
878.13269,306
878.249695,319
878.366821,309
878.483887,314
878.600952,315
878.717957,320
878.834961,317
878.952087,307
879.069092,304
879.186157,323
879.303162,304
879.420227,316
879.537231,303
879.654236,323
879.77124,313
879.888306,321
880.005249,324
880.122314,324
880.239319,304
880.356323,310
880.473328,315
880.590271,317
880.707275,321
880.824341,305
880.941284,310
881.058228,327
881.175232,305
881.292236,334
881.40918,312
881.526123,313
881.643066,320
881.760071,314
881.877014,310
881.993958,313
882.11084,316
882.227783,311
882.344727,309
882.46167,319
882.578613,309
882.695618,319
882.812439,325
882.929382,323
883.046326,308
883.163208,313
883.280151,297
883.397034,327
883.513916,319
883.630798,320
883.747742,323
883.864563,323
883.981506,318
884.098389,317
884.21521,308
884.332153,313
884.448975,312
884.565796,319
884.682678,321
884.7995,323
884.916443,319
885.033264,310
885.150085,312
885.266968,307
885.383789,313
885.500671,315
885.617493,309
885.734314,325
885.851196,299
885.967896,331
886.084717,311
886.201599,310
886.318359,304
886.435181,317
886.552002,301
886.668762,324
886.785645,306
886.902344,328
887.019165,306
887.135925,316
887.252747,316
887.369446,317
887.486267,303
887.603027,318
887.719788,314
887.836548,313
887.953247,308
888.070068,323
888.186829,321
888.303528,316
888.420288,316
888.536987,326
888.653687,310
888.770447,311
888.887146,317
889.003967,330
889.120667,314
889.237305,318
889.354065,313
889.470703,328
889.587463,308
889.704163,307
889.820862,318
889.937561,305
890.054199,305
890.170837,317
890.287598,306
890.404236,320
890.520874,307
890.637634,321
890.754211,318
890.87085,315
890.987549,317
891.104187,314
891.220886,302
891.337463,322
891.454102,308
891.57074,305
891.687378,315
891.804077,324
891.920654,315
892.037231,323
892.15387,316
892.270447,318
892.387085,313
892.503723,309
892.6203,307
892.736877,320
892.853516,323
892.970032,322
893.08667,312
893.203186,313
893.319763,307
893.43634,324
893.552917,315
893.669556,325
893.786011,331
893.902588,312
894.019165,308
894.135681,307
894.252197,324
894.368835,309
894.485291,310
894.601868,324
894.718384,308
894.8349,309
894.951355,316
895.067932,312
895.184448,311
895.300964,328
895.417419,300
895.533936,328
895.650452,316
895.766907,324
895.883423,325
895.999878,308
896.116333,302
896.232849,313
896.349304,297
896.465759,325
896.582214,310
896.698669,321
896.815125,326
896.931641,313
897.048035,319
897.164551,317
897.280884,317
897.397339,322
897.513794,317
897.630249,312
897.746582,310
897.863098,327
897.979431,307
898.095886,325
898.212341,314
898.328674,318
898.445129,311
898.561462,320
898.677795,306
898.794312,324
898.910645,307
899.026978,317
899.143433,316
899.259766,310
899.37616,313
899.492493,315
899.608765,323
899.725159,309
899.841553,309
899.957947,308
900.07428,315
900.190552,312
900.306946,309
900.423157,311
900.53949,323
900.655884,312
900.772156,307
900.888489,300
901.004822,332
901.121033,306
901.237366,325
901.353699,315
901.46991,309
901.586304,315
901.702515,314
901.818787,306
901.93512,313
902.051331,322
902.167603,314
902.283875,318
902.400085,306
902.516418,323
902.632629,311
902.74884,316
902.865112,317
902.981384,313
903.097595,325
903.213867,314
903.330017,311
903.446289,342
903.5625,311
903.67865,317
903.794922,337
903.911072,308
904.027344,310
904.143494,315
904.259705,320
904.375916,319
904.492065,317
904.608215,316
904.724426,318
904.840576,319
904.956726,318
905.072876,323
905.189087,304
905.305176,334
905.421387,315
905.537537,311
905.653687,315
905.769775,329
905.885925,329
906.002014,318
906.118164,305
906.234314,328
906.350403,320
906.466492,313
906.582642,301
906.69873,319
906.814758,299
906.930908,316
907.046936,314
907.163086,314
907.279175,318
907.395264,299
907.511353,311
907.62738,319
907.743408,314
907.859497,317
907.975525,313
908.091553,313
908.207703,308
908.32373,313
908.439758,304
908.555786,324
908.671814,314
908.787842,316
908.90387,308
909.019775,300
909.135864,322
909.251892,315
909.367859,309
909.483826,311
909.599854,310
909.715881,320
909.831848,308
909.947815,318
910.063782,315
910.179749,325
910.295776,311
910.411743,324
910.527649,310
910.643616,295
910.759583,313
910.875488,321
910.991455,310
911.107361,316
911.223267,310
911.339294,331
911.4552,306
911.571106,313
911.687073,315
911.802979,310
911.918823,324
912.034729,317
912.150635,309
912.266602,315
912.382446,306
912.498352,322
912.614197,315
912.730103,330
912.846008,308
792.44574,317
792.56488,357
792.68396,400
792.80304,378
792.92218,335
793.041199,305
793.160339,312
793.279419,326
793.398499,326
793.517578,308
793.636658,318
793.755737,317
793.874817,350
793.993896,334
794.112976,331
794.232056,321
794.351074,330
794.470215,320
794.589233,320
794.708313,319
794.827393,313
794.946411,332
795.065552,338
795.18457,337
795.303589,324
795.422668,325
795.541687,322
795.660767,346
795.779846,321
795.898865,323
796.017883,319
796.136963,322
796.255981,324
796.375061,320
796.49408,323
796.613037,321
796.732117,320
796.851135,325
796.970154,321
797.089233,320
797.208191,321
797.327271,325
797.446228,332
797.565186,333
797.684265,322
797.803223,325
797.922241,318
798.04126,334
798.160278,320
798.279297,319
798.398315,327
798.517273,339
798.636292,334
798.75531,321
798.874268,305
798.993286,319
799.112244,331
799.231323,310
799.350281,316
799.469238,308
799.588257,335
799.707153,304
799.826111,315
799.945129,310
800.064087,319
800.183044,311
800.302063,314
800.421021,324
800.539978,311
800.658936,326
800.777893,321
800.896912,318
801.015747,330
801.134705,320
801.253723,334
801.37262,319
801.491638,309
801.610535,306
801.729492,330
801.84845,313
801.967407,323
802.086243,318
802.205261,332
802.324158,314
802.443115,319
802.562073,309
802.680969,332
802.799927,318
802.918762,320
803.037659,314
803.156677,313
803.275574,321
803.39447,320
803.513428,324
803.632263,307
803.751221,333
803.870117,315
803.989014,320
804.107971,318
804.226746,314
804.345642,319
804.4646,324
804.583496,318
804.702393,324
804.821228,331
804.940125,324
805.059021,322
805.177917,325
805.296814,320
805.415649,310
805.534546,321
805.653442,306
805.772278,328
805.891113,305
806.01001,319
806.128906,328
806.247742,326
806.366577,316
806.485413,323
806.604309,307
806.723145,337
806.84198,307
806.960876,321
807.079712,329
807.198486,313
807.317383,320
807.436218,320
807.554993,322
807.673889,328
807.792725,315
807.91156,316
808.030396,319
808.14917,329
808.268005,307
808.386841,317
808.505676,323
808.624451,321
808.743286,316
808.862122,320
808.980896,326
809.099731,315
809.218506,311
809.337341,319
809.456116,320
809.57489,310
809.693726,314
809.8125,326
809.931274,321
810.050049,325
810.168884,314
810.287659,322
810.406372,312
810.525269,342
810.643982,321
810.762756,328
810.881531,321
811.000305,331
811.11908,313
811.237854,306
811.356567,315
811.475403,310
811.594116,312
811.71283,322
811.831604,316
811.950378,313
812.069153,319
812.187927,324
812.30658,319
812.425415,348
812.544128,306
812.662781,324
812.781616,323
812.900269,319
813.019043,320
813.137756,319
813.256531,304
813.375244,324
813.493896,325
813.612671,317
813.731384,302
813.850037,322
813.96875,324
814.087524,339
814.206238,315
814.324951,315
814.443604,328
814.562256,318
814.68103,322
814.799683,319
814.918335,303
815.037109,333
815.155762,326
815.274475,316
815.393188,314
815.511841,315
815.630554,321
815.749146,313
815.867859,331
815.986572,334
816.105164,318
816.223877,323
816.342529,322
816.461182,319
816.579895,320
816.698486,316
816.817139,322
816.935791,320
817.054504,324
817.173096,323
817.291748,307
817.4104,334
817.529053,315
817.647644,315
817.766235,324
817.884949,315
818.00354,317
818.122192,319
818.240845,312
818.359436,326
818.478088,319
818.59668,322
818.715271,318
818.833923,329
818.952515,308
819.071106,318
819.189758,309
819.30835,320
819.426941,322
819.545532,310
819.664124,305
819.782715,317
819.901306,309
820.019897,318
820.138489,317
820.25708,332
820.375671,318
820.494202,310
820.612732,317
820.731384,327
820.849915,311
820.968506,317
821.087097,323
821.205627,323
821.324158,310
821.442749,313
821.561279,321
821.679871,321
821.798401,321
821.916931,323
822.035461,319
822.154053,317
822.272583,307
822.391174,320
822.509583,326
822.628174,313
822.746704,329
822.865234,320
822.983765,304
823.102295,327
823.220825,320
823.339294,331
823.457825,309
823.576355,320
823.694824,316
823.813354,309
823.931885,324
824.050354,313
824.168884,309
824.287354,318
824.405823,308
824.524353,321
824.642822,310
824.761353,317
824.879822,310
824.998291,322
825.116699,315
825.235291,318
825.353699,309
825.472168,326
825.590637,307
825.709106,318
825.827576,316
825.946045,318
826.064453,315
826.182983,322
826.301392,306
826.4198,328
826.53833,304
826.656738,302
826.775208,312
826.893677,319
827.012024,297
827.130493,312
827.248962,315
827.36731,327
827.485779,312
827.604248,306
827.722595,309
827.841064,324
827.959412,298
828.077942,319
828.196289,307
828.314636,311
828.433105,320
828.551514,309
828.669861,320
828.78833,314
828.906677,310
829.025085,313
829.143433,325
829.261841,313
829.38031,328
829.498657,318
829.617004,303
829.735413,313
829.85376,312
829.972107,310
830.090515,318
830.208862,318
830.327209,309
830.445557,320
830.563904,306
830.682312,321
830.800659,325
830.919006,332
831.037354,315
831.155701,317
831.274048,311
831.392395,316
831.51062,312
831.629028,322
831.747314,305
831.865662,311
831.984009,308
832.102356,321
832.220642,321
832.338928,334
832.457275,310
832.575623,315
832.693909,310
832.812134,322
832.930481,304
833.048828,316
833.167114,315
833.2854,309
833.403687,302
833.521973,317
833.640259,317
833.758545,322
833.876831,323
833.995056,325
834.113281,311
834.231628,316
834.349915,313
834.468201,314
834.586426,329
834.704651,315
834.822998,304
834.941162,318
835.059448,315
835.177673,316
835.295959,317
835.414246,315
835.53241,304
835.650635,311
835.768921,318
835.887146,322
836.005371,292
836.123596,326
836.241821,305
836.360046,321
836.478271,314
836.596497,311
836.714722,314
836.832886,316
836.95105,323
837.069336,318
837.1875,293
837.305725,313
837.423889,303
837.542053,334
837.660339,313
837.778503,315
837.896667,311
838.014832,307
838.132996,306
838.25116,326
838.369385,319
838.487488,296
838.605713,314
838.723877,311
838.84198,318
838.960205,333
839.078308,323
839.196472,307
839.314636,324
839.4328,311
839.550964,308
839.669067,321
839.787231,317
839.905396,313
840.023499,303
840.141602,316
840.259766,317
840.377869,324
840.495972,307
840.614136,323
840.732239,326
840.850342,334
840.968445,304
841.086548,316
841.204651,300
841.322754,323
841.440918,308
841.55896,313
841.677002,316
841.795166,302
841.913208,324
842.031311,314
842.149353,299
842.267456,317
842.385498,324
842.503601,323
842.621643,294
842.739746,303
842.857788,315
842.97583,325
843.093933,298
843.211975,319
843.330017,310
843.44812,324
843.566101,302
843.684204,321
843.802246,317
843.920227,328
844.038269,304
844.156311,312
844.274292,325
844.392395,317
844.510376,300
844.628357,306
844.74646,317
844.864441,327
844.982422,313
845.100403,317
845.218384,304
845.336426,322
845.454468,315
845.572449,312
845.69043,316
845.808411,320
845.926453,314
846.044373,323
846.162354,326
846.280396,320
846.398315,315
846.516296,323
846.634216,311
846.752197,326
846.870178,293
846.988098,318
847.106079,312
847.22406,317
847.34198,329
847.4599,323
847.577881,320
847.695801,306
847.813782,314
847.931641,312
848.049561,314
848.167603,323
848.285461,317
848.403381,326
848.521362,315
848.639221,327
848.75708,328
848.875,311
848.99292,304
849.110901,323
849.22876,322
849.34668,325
849.464539,310
849.582458,316
849.700317,311
849.818176,319
849.936096,322
850.053955,307
850.171875,314
850.289673,317
850.407593,293
850.525452,316
850.643311,315
850.761169,318
850.878967,303
850.996887,317
851.114746,322
851.232544,315
851.350403,316
851.468262,315
851.58606,312
851.703979,325
851.821777,315
851.939636,315
852.057434,316
852.175232,326
852.293091,313
852.410889,317
852.528687,322
852.646545,328
852.764343,314
852.88208,312
852.999939,317
853.117676,327
853.235535,318
853.353271,318
853.471069,324
853.588928,308
853.706604,318
853.824402,310
853.9422,312
854.059998,331
854.177734,315
854.295532,316
854.413269,324
854.531006,309
854.648804,323
854.766541,324
854.884277,306
855.002014,326
855.119751,317
855.237549,320
855.355225,316
855.473022,322
855.590698,312
855.708435,326
855.826172,318
855.943848,308
856.061646,321
856.179321,320
856.296997,301
856.414795,316
856.53241,316
856.650085,317
856.767822,317
856.885559,315
857.003174,307
857.120911,311
857.238586,325
857.356201,320
857.473938,316
857.591614,321
857.709351,306
857.826965,317
857.944641,314
858.062317,317
858.179993,323
858.297668,304
858.415283,321
858.532959,305
858.650574,320
858.768188,310
858.885803,325
859.003479,317
859.121094,299
859.23877,326
859.356384,320
859.473999,322
859.591675,308
859.709229,311
859.826843,324
859.944458,322
860.062012,307
860.179626,321
860.297302,308
860.414856,298
860.532471,312
860.650024,320
860.767639,316
860.885193,314
861.002808,323
861.120361,311
861.237976,299
861.35553,315
861.473022,327
861.590698,320
861.708191,320
861.825745,312
861.943298,317
862.060852,313
862.178406,315
862.295959,322
862.413513,315
862.531006,315
862.64856,320
862.766113,312
862.883667,325
863.00116,301
863.118713,317
863.236206,326
863.353699,305
863.471252,327
863.588745,314
863.706177,319
863.82373,316
863.941162,315
864.058716,315
864.176208,322
864.29364,319
864.411194,321
864.528687,313
864.646118,325
864.763611,306
864.881042,320
864.998535,307
865.116028,311
865.233459,304
865.350891,310
865.468384,312
865.585754,316
865.703308,295
865.820679,317
865.938171,324
866.055542,328
866.173035,309
866.290466,314
866.407837,313
866.52533,319
866.6427,301
866.760071,328
866.877563,311
866.994934,308
867.112305,297
867.229736,330
867.347107,316
867.464539,297
867.58197,317
867.699341,326
867.81665,311
867.934082,322
868.051453,304
868.168823,312
868.286194,306
868.403564,322
868.520935,313
868.638306,311
868.755676,321
868.872986,299
868.990295,316
869.107727,319
869.225037,307
869.342346,316
869.459717,320
869.577026,330
869.694336,284
869.811707,316
869.929016,302
870.046326,326
870.163635,316
870.280945,313
870.398254,318
870.515564,304
870.632812,314
870.750183,319
870.867432,322
870.984741,307
871.102051,317
871.219299,319
871.336609,314
871.453918,329
871.571106,325
871.688416,316
871.805664,318
871.922852,323
872.040222,309
872.157471,313
872.274719,316
872.391968,329
872.509155,314
872.626465,317
872.743652,314
872.860962,315
872.978149,316
873.095337,321
873.212646,310
873.329834,322
873.44696,311
873.564209,313
873.681396,327
873.798645,322
873.915894,313
874.03302,319
874.150208,310
874.267456,320
874.384583,321
874.501831,302
874.618958,341
874.736145,324
874.853333,324
874.970459,324
875.087646,311
875.204834,314
875.32196,327
875.439148,326
875.556274,313
875.673401,321
875.790527,321
875.907715,312
876.024841,319
876.141968,332
876.259094,303
876.376282,320
876.493347,307
876.610474,329
876.7276,312
876.844727,310
876.961853,319
877.078918,318
877.195984,305
877.313171,320
877.430237,306
877.547302,314
877.664368,299
877.781433,301
877.898499,317
878.015625,321
878.13269,309
878.249695,315
878.366821,312
878.483887,320
878.600952,306
878.717957,319
878.834961,321
878.952087,318
879.069092,318
879.186157,317
879.303162,301
879.420227,335
879.537231,310
879.654236,329
879.77124,323
879.888306,335
880.005249,309
880.122314,328
880.239319,295
880.356323,329
880.473328,320
880.590271,313
880.707275,311
880.824341,320
880.941284,302
881.058228,320
881.175232,313
881.292236,317
881.40918,318
881.526123,307
881.643066,321
881.760071,323
881.877014,314
881.993958,308
882.11084,302
882.227783,313
882.344727,305
882.46167,307
882.578613,310
882.695618,296
882.812439,321
882.929382,327
883.046326,316
883.163208,327
883.280151,318
883.397034,325
883.513916,308
883.630798,320
883.747742,320
883.864563,324
883.981506,305
884.098389,305
884.21521,321
884.332153,321
884.448975,308
884.565796,317
884.682678,307
884.7995,322
884.916443,316
885.033264,321
885.150085,309
885.266968,328
885.383789,315
885.500671,320
885.617493,307
885.734314,321
885.851196,319
885.967896,325
886.084717,317
886.201599,316
886.318359,316
886.435181,309
886.552002,315
886.668762,315
886.785645,322
886.902344,325
887.019165,304
887.135925,313
887.252747,306
887.369446,304
887.486267,308
887.603027,313
887.719788,324
887.836548,314
887.953247,316
888.070068,317
888.186829,316
888.303528,317
888.420288,324
888.536987,314
888.653687,309
888.770447,314
888.887146,311
889.003967,318
889.120667,316
889.237305,324
889.354065,314
889.470703,312
889.587463,315
889.704163,323
889.820862,310
889.937561,322
890.054199,311
890.170837,323
890.287598,309
890.404236,308
890.520874,316
890.637634,328
890.754211,297
890.87085,319
890.987549,316
891.104187,333
891.220886,324
891.337463,320
891.454102,307
891.57074,317
891.687378,303
891.804077,326
891.920654,331
892.037231,335
892.15387,325
892.270447,306
892.387085,308
892.503723,326
892.6203,316
892.736877,307
892.853516,314
892.970032,307
893.08667,319
893.203186,318
893.319763,326
893.43634,315
893.552917,324
893.669556,320
893.786011,310
893.902588,319
894.019165,311
894.135681,317
894.252197,308
894.368835,313
894.485291,314
894.601868,324
894.718384,313
894.8349,318
894.951355,318
895.067932,318
895.184448,302
895.300964,312
895.417419,306
895.533936,322
895.650452,326
895.766907,320
895.883423,327
895.999878,328
896.116333,300
896.232849,324
896.349304,321
896.465759,330
896.582214,309
896.698669,304
896.815125,304
896.931641,326
897.048035,315
897.164551,318
897.280884,316
897.397339,328
897.513794,308
897.630249,318
897.746582,315
897.863098,317
897.979431,310
898.095886,315
898.212341,305
898.328674,309
898.445129,320
898.561462,324
898.677795,312
898.794312,328
898.910645,317
899.026978,327
899.143433,302
899.259766,312
899.37616,321
899.492493,329
899.608765,310
899.725159,298
899.841553,307
899.957947,314
900.07428,306
900.190552,318
900.306946,321
900.423157,320
900.53949,316
900.655884,314
900.772156,312
900.888489,304
901.004822,302
901.121033,323
901.237366,319
901.353699,317
901.46991,306
901.586304,316
901.702515,315
901.818787,323
901.93512,311
902.051331,317
902.167603,313
902.283875,324
902.400085,318
902.516418,314
902.632629,310
902.74884,309
902.865112,316
902.981384,320
903.097595,324
903.213867,319
903.330017,319
903.446289,323
903.5625,310
903.67865,305
903.794922,308
903.911072,315
904.027344,314
904.143494,322
904.259705,317
904.375916,315
904.492065,315
904.608215,331
904.724426,303
904.840576,305
904.956726,306
905.072876,310
905.189087,319
905.305176,301
905.421387,302
905.537537,319
905.653687,314
905.769775,319
905.885925,319
906.002014,310
906.118164,318
906.234314,321
906.350403,320
906.466492,329
906.582642,308
906.69873,332
906.814758,306
906.930908,311
907.046936,319
907.163086,318
907.279175,314
907.395264,326
907.511353,320
907.62738,329
907.743408,316
907.859497,306
907.975525,318
908.091553,329
908.207703,322
908.32373,329
908.439758,312
908.555786,310
908.671814,307
908.787842,322
908.90387,312
909.019775,327
909.135864,313
909.251892,311
909.367859,322
909.483826,327
909.599854,314
909.715881,320
909.831848,314
909.947815,319
910.063782,315
910.179749,311
910.295776,325
910.411743,323
910.527649,319
910.643616,319
910.759583,314
910.875488,321
910.991455,313
911.107361,323
911.223267,305
911.339294,324
911.4552,307
911.571106,325
911.687073,319
911.802979,312
911.918823,312
912.034729,307
912.150635,314
912.266602,311
912.382446,317
912.498352,314
912.614197,312
912.730103,320
912.846008,309
792.44574,303
792.56488,353
792.68396,398
792.80304,386
792.92218,330
793.041199,314
793.160339,318
793.279419,337
793.398499,329
793.517578,327
793.636658,318
793.755737,322
793.874817,344
793.993896,349
794.112976,325
794.232056,330
794.351074,310
794.470215,332
794.589233,325
794.708313,314
794.827393,324
794.946411,313
795.065552,320
795.18457,327
795.303589,328
795.422668,330
795.541687,334
795.660767,329
795.779846,332
795.898865,309
796.017883,322
796.136963,317
796.255981,327
796.375061,333
796.49408,325
796.613037,334
796.732117,317
796.851135,325
796.970154,330
797.089233,306
797.208191,329
797.327271,323
797.446228,319
797.565186,327
797.684265,315
797.803223,333
797.922241,314
798.04126,325
798.160278,327
798.279297,318
798.398315,326
798.517273,340
798.636292,326
798.75531,326
798.874268,323
798.993286,316
799.112244,319
799.231323,318
799.350281,310
799.469238,313
799.588257,315
799.707153,321
799.826111,317
799.945129,321
800.064087,336
800.183044,323
800.302063,313
800.421021,330
800.539978,331
800.658936,311
800.777893,325
800.896912,317
801.015747,315
801.134705,313
801.253723,317
801.37262,316
801.491638,321
801.610535,321
801.729492,318
801.84845,316
801.967407,332
802.086243,315
802.205261,320
802.324158,324
802.443115,326
802.562073,321
802.680969,314
802.799927,320
802.918762,326
803.037659,325
803.156677,314
803.275574,329
803.39447,309
803.513428,325
803.632263,333
803.751221,314
803.870117,321
803.989014,315
804.107971,320
804.226746,324
804.345642,321
804.4646,309
804.583496,319
804.702393,324
804.821228,313
804.940125,308
805.059021,321
805.177917,313
805.296814,330
805.415649,323
805.534546,316
805.653442,333
805.772278,317
805.891113,333
806.01001,318
806.128906,324
806.247742,332
806.366577,324
806.485413,321
806.604309,311
806.723145,326
806.84198,329
806.960876,328
807.079712,334
807.198486,321
807.317383,311
807.436218,330
807.554993,320
807.673889,328
807.792725,297
807.91156,307
808.030396,328
808.14917,303
808.268005,320
808.386841,318
808.505676,328
808.624451,317
808.743286,317
808.862122,323
808.980896,328
809.099731,328
809.218506,321
809.337341,329
809.456116,301
809.57489,323
809.693726,319
809.8125,316
809.931274,323
810.050049,319
810.168884,309
810.287659,316
810.406372,312
810.525269,310
810.643982,326
810.762756,334
810.881531,305
811.000305,310
811.11908,314
811.237854,306
811.356567,326
811.475403,321
811.594116,326
811.71283,315
811.831604,304
811.950378,334
812.069153,314
812.187927,324
812.30658,332
812.425415,324
812.544128,315
812.662781,311
812.781616,328
812.900269,320
813.019043,307
813.137756,324
813.256531,319
813.375244,315
813.493896,335
813.612671,314
813.731384,319
813.850037,320
813.96875,325
814.087524,311
814.206238,322
814.324951,325
814.443604,312
814.562256,325
814.68103,331
814.799683,321
814.918335,324
815.037109,326
815.155762,322
815.274475,318
815.393188,314
815.511841,314
815.630554,322
815.749146,317
815.867859,325
815.986572,312
816.105164,321
816.223877,315
816.342529,326
816.461182,316
816.579895,324
816.698486,316
816.817139,312
816.935791,308
817.054504,326
817.173096,316
817.291748,334
817.4104,326
817.529053,311
817.647644,307
817.766235,334
817.884949,305
818.00354,311
818.122192,325
818.240845,323
818.359436,324
818.478088,312
818.59668,321
818.715271,319
818.833923,318
818.952515,315
819.071106,314
819.189758,325
819.30835,309
819.426941,296
819.545532,326
819.664124,321
819.782715,325
819.901306,322
820.019897,313
820.138489,305
820.25708,321
820.375671,306
820.494202,328
820.612732,319
820.731384,318
820.849915,316
820.968506,314
821.087097,318
821.205627,322
821.324158,320
821.442749,316
821.561279,310
821.679871,315
821.798401,319
821.916931,321
822.035461,315
822.154053,311
822.272583,326
822.391174,315
822.509583,321
822.628174,317
822.746704,313
822.865234,321
822.983765,326
823.102295,319
823.220825,323
823.339294,307
823.457825,315
823.576355,312
823.694824,317
823.813354,315
823.931885,311
824.050354,319
824.168884,315
824.287354,311
824.405823,314
824.524353,314
824.642822,321
824.761353,332
824.879822,330
824.998291,315
825.116699,332
825.235291,315
825.353699,312
825.472168,315
825.590637,323
825.709106,319
825.827576,330
825.946045,314
826.064453,337
826.182983,328
826.301392,319
826.4198,309
826.53833,310
826.656738,317
826.775208,311
826.893677,313
827.012024,302
827.130493,314
827.248962,317
827.36731,312
827.485779,324
827.604248,314
827.722595,313
827.841064,318
827.959412,322
828.077942,328
828.196289,323
828.314636,315
828.433105,321
828.551514,309
828.669861,306
828.78833,308
828.906677,315
829.025085,320
829.143433,317
829.261841,304
829.38031,325
829.498657,310
829.617004,315
829.735413,318
829.85376,293
829.972107,325
830.090515,319
830.208862,331
830.327209,304
830.445557,306
830.563904,305
830.682312,328
830.800659,311
830.919006,322
831.037354,325
831.155701,310
831.274048,312
831.392395,320
831.51062,330
831.629028,314
831.747314,318
831.865662,310
831.984009,316
832.102356,310
832.220642,315
832.338928,312
832.457275,311
832.575623,326
832.693909,310
832.812134,321
832.930481,316
833.048828,307
833.167114,309
833.2854,327
833.403687,319
833.521973,323
833.640259,323
833.758545,327
833.876831,323
833.995056,315
834.113281,320
834.231628,311
834.349915,329
834.468201,307
834.586426,305
834.704651,317
834.822998,318
834.941162,330
835.059448,324
835.177673,314
835.295959,308
835.414246,317
835.53241,327
835.650635,329
835.768921,314
835.887146,307
836.005371,323
836.123596,320
836.241821,309
836.360046,309
836.478271,317
836.596497,319
836.714722,322
836.832886,317
836.95105,314
837.069336,331
837.1875,311
837.305725,317
837.423889,320
837.542053,310
837.660339,312
837.778503,314
837.896667,325
838.014832,325
838.132996,299
838.25116,306
838.369385,316
838.487488,312
838.605713,318
838.723877,313
838.84198,324
838.960205,311
839.078308,324
839.196472,316
839.314636,322
839.4328,330
839.550964,317
839.669067,316
839.787231,322
839.905396,307
840.023499,327
840.141602,311
840.259766,309
840.377869,322
840.495972,312
840.614136,323
840.732239,323
840.850342,326
840.968445,323
841.086548,322
841.204651,309
841.322754,307
841.440918,321
841.55896,312
841.677002,317
841.795166,320
841.913208,322
842.031311,310
842.149353,307
842.267456,323
842.385498,307
842.503601,314
842.621643,322
842.739746,328
842.857788,320
842.97583,311
843.093933,328
843.211975,319
843.330017,325
843.44812,314
843.566101,326
843.684204,309
843.802246,312
843.920227,322
844.038269,319
844.156311,325
844.274292,323
844.392395,308
844.510376,315
844.628357,321
844.74646,316
844.864441,302
844.982422,314
845.100403,311
845.218384,314
845.336426,312
845.454468,313
845.572449,307
845.69043,311
845.808411,318
845.926453,314
846.044373,323
846.162354,331
846.280396,315
846.398315,322
846.516296,307
846.634216,315
846.752197,323
846.870178,325
846.988098,305
847.106079,322
847.22406,323
847.34198,309
847.4599,307
847.577881,324
847.695801,322
847.813782,313
847.931641,320
848.049561,321
848.167603,323
848.285461,306
848.403381,309
848.521362,316
848.639221,313
848.75708,323
848.875,324
848.99292,318
849.110901,327
849.22876,325
849.34668,317
849.464539,329
849.582458,308
849.700317,334
849.818176,315
849.936096,311
850.053955,313
850.171875,311
850.289673,311
850.407593,324
850.525452,307
850.643311,317
850.761169,329
850.878967,322
850.996887,316
851.114746,324
851.232544,314
851.350403,315
851.468262,319
851.58606,299
851.703979,316
851.821777,321
851.939636,313
852.057434,328
852.175232,306
852.293091,323
852.410889,324
852.528687,306
852.646545,332
852.764343,314
852.88208,304
852.999939,326
853.117676,308
853.235535,318
853.353271,327
853.471069,313
853.588928,326
853.706604,324
853.824402,313
853.9422,321
854.059998,321
854.177734,315
854.295532,314
854.413269,320
854.531006,315
854.648804,320
854.766541,318
854.884277,310
855.002014,324
855.119751,331
855.237549,305
855.355225,315
855.473022,319
855.590698,308
855.708435,312
855.826172,320
855.943848,306
856.061646,320
856.179321,323
856.296997,319
856.414795,320
856.53241,310
856.650085,314
856.767822,321
856.885559,310
857.003174,327
857.120911,315
857.238586,316
857.356201,308
857.473938,313
857.591614,319
857.709351,320
857.826965,306
857.944641,304
858.062317,322
858.179993,326
858.297668,328
858.415283,326
858.532959,320
858.650574,321
858.768188,320
858.885803,312
859.003479,313
859.121094,313
859.23877,312
859.356384,315
859.473999,314
859.591675,320
859.709229,320
859.826843,310
859.944458,308
860.062012,302
860.179626,311
860.297302,309
860.414856,316
860.532471,310
860.650024,296
860.767639,319
860.885193,320
861.002808,309
861.120361,319
861.237976,320
861.35553,311
861.473022,317
861.590698,309
861.708191,319
861.825745,311
861.943298,313
862.060852,325
862.178406,327
862.295959,304
862.413513,318
862.531006,305
862.64856,312
862.766113,303
862.883667,324
863.00116,321
863.118713,310
863.236206,313
863.353699,323
863.471252,305
863.588745,313
863.706177,317
863.82373,318
863.941162,314
864.058716,318
864.176208,305
864.29364,321
864.411194,324
864.528687,295
864.646118,315
864.763611,333
864.881042,312
864.998535,313
865.116028,310
865.233459,310
865.350891,310
865.468384,328
865.585754,319
865.703308,322
865.820679,309
865.938171,311
866.055542,323
866.173035,330
866.290466,332
866.407837,324
866.52533,320
866.6427,306
866.760071,313
866.877563,321
866.994934,316
867.112305,321
867.229736,315
867.347107,316
867.464539,311
867.58197,306
867.699341,331
867.81665,312
867.934082,308
868.051453,324
868.168823,303
868.286194,315
868.403564,313
868.520935,310
868.638306,308
868.755676,319
868.872986,310
868.990295,301
869.107727,324
869.225037,321
869.342346,314
869.459717,319
869.577026,299
869.694336,316
869.811707,310
869.929016,327
870.046326,299
870.163635,312
870.280945,335
870.398254,319
870.515564,314
870.632812,321
870.750183,319
870.867432,335
870.984741,322
871.102051,302
871.219299,319
871.336609,313
871.453918,328
871.571106,324
871.688416,311
871.805664,336
871.922852,313
872.040222,315
872.157471,309
872.274719,317
872.391968,335
872.509155,321
872.626465,301
872.743652,317
872.860962,299
872.978149,321
873.095337,299
873.212646,323
873.329834,312
873.44696,326
873.564209,317
873.681396,324
873.798645,320
873.915894,319
874.03302,306
874.150208,306
874.267456,312
874.384583,328
874.501831,312
874.618958,322
874.736145,316
874.853333,313
874.970459,313
875.087646,322
875.204834,316
875.32196,322
875.439148,320
875.556274,313
875.673401,312
875.790527,316
875.907715,311
876.024841,314
876.141968,313
876.259094,323
876.376282,307
876.493347,316
876.610474,316
876.7276,334
876.844727,319
876.961853,316
877.078918,319
877.195984,329
877.313171,318
877.430237,316
877.547302,320
877.664368,319
877.781433,312
877.898499,307
878.015625,310
878.13269,301
878.249695,295
878.366821,328
878.483887,314
878.600952,308
878.717957,303
878.834961,325
878.952087,326
879.069092,328
879.186157,321
879.303162,321
879.420227,304
879.537231,324
879.654236,310
879.77124,298
879.888306,320
880.005249,313
880.122314,314
880.239319,313
880.356323,318
880.473328,320
880.590271,324
880.707275,318
880.824341,328
880.941284,321
881.058228,316
881.175232,314
881.292236,320
881.40918,329
881.526123,310
881.643066,313
881.760071,321
881.877014,324
881.993958,315
882.11084,326
882.227783,317
882.344727,323
882.46167,319
882.578613,320
882.695618,322
882.812439,312
882.929382,316
883.046326,314
883.163208,326
883.280151,324
883.397034,311
883.513916,318
883.630798,319
883.747742,338
883.864563,311
883.981506,308
884.098389,309
884.21521,322
884.332153,317
884.448975,327
884.565796,322
884.682678,322
884.7995,308
884.916443,322
885.033264,301
885.150085,317
885.266968,311
885.383789,315
885.500671,337
885.617493,327
885.734314,311
885.851196,299
885.967896,303
886.084717,331
886.201599,306
886.318359,311
886.435181,305
886.552002,314
886.668762,307
886.785645,327
886.902344,312
887.019165,323
887.135925,317
887.252747,323
887.369446,314
887.486267,312
887.603027,314
887.719788,303
887.836548,318
887.953247,332
888.070068,312
888.186829,312
888.303528,322
888.420288,320
888.536987,325
888.653687,315
888.770447,323
888.887146,335
889.003967,317
889.120667,325
889.237305,325
889.354065,322
889.470703,312
889.587463,314
889.704163,315
889.820862,326
889.937561,311
890.054199,312
890.170837,322
890.287598,318
890.404236,307
890.520874,309
890.637634,322
890.754211,312
890.87085,308
890.987549,309
891.104187,321
891.220886,324
891.337463,330
891.454102,329
891.57074,323
891.687378,312
891.804077,307
891.920654,318
892.037231,317
892.15387,312
892.270447,313
892.387085,313
892.503723,336
892.6203,327
892.736877,314
892.853516,319
892.970032,303
893.08667,331
893.203186,318
893.319763,328
893.43634,316
893.552917,316
893.669556,308
893.786011,312
893.902588,306
894.019165,323
894.135681,323
894.252197,325
894.368835,316
894.485291,321
894.601868,319
894.718384,321
894.8349,327
894.951355,310
895.067932,327
895.184448,316
895.300964,326
895.417419,324
895.533936,309
895.650452,321
895.766907,313
895.883423,319
895.999878,322
896.116333,316
896.232849,319
896.349304,317
896.465759,309
896.582214,324
896.698669,312
896.815125,312
896.931641,316
897.048035,321
897.164551,307
897.280884,318
897.397339,316
897.513794,318
897.630249,326
897.746582,325
897.863098,311
897.979431,324
898.095886,314
898.212341,309
898.328674,312
898.445129,310
898.561462,311
898.677795,316
898.794312,310
898.910645,309
899.026978,317
899.143433,319
899.259766,316
899.37616,312
899.492493,322
899.608765,321
899.725159,318
899.841553,323
899.957947,325
900.07428,322
900.190552,302
900.306946,330
900.423157,332
900.53949,317
900.655884,315
900.772156,310
900.888489,316
901.004822,316
901.121033,311
901.237366,322
901.353699,327
901.46991,307
901.586304,316
901.702515,330
901.818787,314
901.93512,313
902.051331,307
902.167603,313
902.283875,308
902.400085,311
902.516418,317
902.632629,322
902.74884,309
902.865112,322
902.981384,312
903.097595,318
903.213867,323
903.330017,325
903.446289,319
903.5625,322
903.67865,304
903.794922,323
903.911072,316
904.027344,300
904.143494,320
904.259705,304
904.375916,303
904.492065,333
904.608215,314
904.724426,317
904.840576,317
904.956726,317
905.072876,330
905.189087,320
905.305176,311
905.421387,326
905.537537,324
905.653687,311
905.769775,307
905.885925,324
906.002014,323
906.118164,317
906.234314,310
906.350403,318
906.466492,311
906.582642,313
906.69873,318
906.814758,302
906.930908,335
907.046936,309
907.163086,317
907.279175,323
907.395264,311
907.511353,318
907.62738,313
907.743408,316
907.859497,313
907.975525,314
908.091553,317
908.207703,322
908.32373,322
908.439758,305
908.555786,324
908.671814,320
908.787842,311
908.90387,330
909.019775,318
909.135864,315
909.251892,302
909.367859,325
909.483826,318
909.599854,326
909.715881,305
909.831848,330
909.947815,314
910.063782,325
910.179749,317
910.295776,318
910.411743,320
910.527649,310
910.643616,307
910.759583,321
910.875488,316
910.991455,318
911.107361,315
911.223267,321
911.339294,319
911.4552,323
911.571106,328
911.687073,321
911.802979,327
911.918823,337
912.034729,324
912.150635,328
912.266602,323
912.382446,308
912.498352,318
912.614197,319
912.730103,312
912.846008,317
